;========================================================================
;Dump of DataSpace 'C:\Users\engineer\Documents\data\user data\amt342\ColinBundschu(crb273)\04-08-2025\Experiment\X-Ray001 400um - FG  ON\GaMnCoO4\Co2p Scan.VGD'
; on 8/4/2025 at 18:47:32
;========================================================================


;[Note that this file can be reloaded only if certain syntax rules are NOT broken]

$FORMAT=4


;Summary Properties present:
$PROPERTIES=SUM
DS_EXT_SUPROPID_TITLE       : VT_BSTR = 'Co2p Scan'
DS_EXT_SUPROPID_SUBJECT     : VT_BSTR = '04-08-2025'
DS_EXT_SUPROPID_AUTHOR      : VT_BSTR = 'engineer'
DS_EXT_SUPROPID_COMMENTS    : VT_BSTR = ''
DS_EXT_SUPROPID_CREATED     : VT_DATE = 8/4/2025   21:24:43
DS_EXT_SUPROPID_SAVED       : VT_DATE = 8/4/2025   22:23:43

;Standard Properties present:
$PROPERTIES=STD
DS_GEPROPID_TECHNIQUE                       : VT_I4   = 1
DS_GEPROPID_INSTRUMENT                      : VT_BSTR = 'Nexsa_G2'
DS_GEPROPID_SOURCE_TYPE                     : VT_I4   = 1
DS_GEPROPID_GUID                            : VT_BSTR = '{F3FBDB85-EC48-4425-8769-D9E7C8F6EF05}'
DS_GEPROPID_SOURCE_GUID                     : VT_BSTR = '{F3FBDB85-EC48-4425-8769-D9E7C8F6EF05}'
DS_GEPROPID_EXPT_RUN_GUID                   : VT_BSTR = '{315F86BB-07DF-4D75-BCC0-21DA24A6008A}'
DS_GEPROPID_VALUE_TYPE                      : VT_I4   = 11
DS_GEPROPID_VALUE_LABEL                     : VT_BSTR = 'Counts'
DS_GEPROPID_VALUE_SYMBOL                    : VT_BSTR = 'C'
DS_GEPROPID_VALUE_UNIT                      : VT_BSTR = ''
DS_DATASTORAGEID_DATA_STORAGE_METHOD        : VT_I4   = 0
DS_SOPROPID_STYPE                           : VT_I4   = 10
DS_SOPROPID_MONO                            : VT_BOOL = True
DS_SOPROPID_ENERGY                          : VT_R4   = 1486.680054
DS_SOPROPID_VOLTAGE                         : VT_R4   = 12000.000000
DS_SOPROPID_CURRENT                         : VT_R4   = 0.010000
DS_SOPROPID_WIDTH                           : VT_R4   = 400.000000
DS_SOPROPID_LENGTH                          : VT_R4   = 400.000000
DS_SOPROPID_GUN                             : VT_I2   = 11
DS_STPROPID_POS_X                           : VT_I4   = 12029700
DS_STPROPID_POS_Y                           : VT_I4   = 20938400
DS_STPROPID_POS_Z                           : VT_I4   = 33661327
DS_STPROPID_POS_TILT                        : VT_I4   = 0
DS_STPROPID_POS_AZIM                        : VT_I4   = 0
DS_ACPROPID_START_TIME                      : VT_DATE = 8/4/2025   22:17:16
DS_ACPROPID_END_TIME                        : VT_DATE = 8/4/2025   22:23:43
DS_ACPROPID_ACQ_TIME                        : VT_R4   = 0.050000
DS_ACPROPID_PERIODS                         : VT_I4   = 15
DS_ACPROPID_MODE                            : VT_I2   = 2
DS_ACPROPID_DIRECTION                       : VT_I2   = 1
DS_ACPROPID_SIG_COMP                        : VT_BOOL = True
DS_ACPROPID_EV_SCALE                        : VT_I2   = 1
DS_SOURCE_FLOODGUNPROPID_CURRENT            : VT_R4   = 150.000000
DS_SOURCE_FLOODGUNPROPID_ENERGY             : VT_R4   = 0.200000
DS_SOURCE_FLOODGUNPROPID_DESCRIPTION        : VT_BSTR = 'Default FG03 mode'
DS_ANPROPID_MODE                            : VT_I2   = 1
DS_ANPROPID_PASS                            : VT_R4   = 50.000000
DS_ANPROPID_WORK_FTN                        : VT_R4   = 4.200000
DS_ANPROPID_LENS_MODE_NAME                  : VT_BSTR = 'Standard'
DS_ANPROPID_TXFN_COEFFS                     : VT_I4   = 4
DS_ANPROPID_TXFN_REMOVED                    : VT_BOOL = True
; Property list for DS_ANPROPID_TXFN_COEFF (expecting 4) follows:
DS_ANPROPID_TXFN_COEFF[0]                        : VT_R4   = 4.730430
DS_ANPROPID_TXFN_COEFF[1]                        : VT_R4   = 0.641629
DS_ANPROPID_TXFN_COEFF[2]                        : VT_R4   = -0.583938
DS_ANPROPID_TXFN_COEFF[3]                        : VT_R4   = 0.061485

;Extended Properties present:
$PROPERTIES=EXT
;   NONE found

;========================================================================

;DataSpace has 1 data axes as follows:
;   #=      start,     end,       numSpaceAxes
$DATAAXES=1,#empty#
    0=        0,      410,          1

;========================================================================

;DataSpace has 1 space axes as follows:
;   #=       start,         width,       numPoints,  axisType,   linear,  symbol,     unit,      label
$SPACEAXES=1
    0=     674.680000,       0.100000,      411,  ENERGY,   LINEAR,  'E',   'eV',    'Energy'

;========================================================================

;Values on axis 0
$DATA=*
LIST@   0=    49118.415035,    49343.294485,    48911.556898,    49151.708139
LIST@   4=    49191.948460,    49111.077247,    49135.064431,    49128.296495
LIST@   8=    49206.163795,    49389.800360,    48952.607056,    49228.831806
LIST@  12=    49091.800680,    48981.336766,    48777.382436,    48766.980125
LIST@  16=    48946.804617,    49070.240312,    49073.517778,    48838.672661
LIST@  20=    48938.068134,    48929.209089,    49045.255957,    48728.755280
LIST@  24=    49041.369469,    49427.912044,    48978.213201,    49042.623115
LIST@  28=    48956.527086,    49137.870503,    49031.656887,    49130.901355
LIST@  32=    49128.244147,    48681.169679,    49126.663055,    49081.712970
LIST@  36=    49111.577897,    48987.668578,    49306.357540,    49376.853428
LIST@  40=    49122.172307,    49040.720138,    49193.546837,    48915.063689
LIST@  44=    49165.910528,    49623.865407,    49335.431870,    49214.612371
LIST@  48=    49198.125705,    49625.423557,    49508.402579,    49805.813079
LIST@  52=    49753.260335,    49727.067095,    49856.910064,    49664.220085
LIST@  56=    49586.362068,    49850.134773,    49682.386768,    50077.608664
LIST@  60=    50035.237989,    50359.140817,    49772.713994,    49989.782926
LIST@  64=    50367.445474,    50111.932560,    50373.746448,    50315.096071
LIST@  68=    50322.215101,    50625.773236,    50278.003250,    50298.487389
LIST@  72=    50596.652260,    50828.537507,    50695.704496,    50665.562691
LIST@  76=    50821.207293,    50918.199700,    51190.009086,    51030.041714
LIST@  80=    51207.031404,    51255.397407,    51152.304282,    51259.596313
LIST@  84=    51222.999663,    51509.443889,    51367.165384,    51582.334550
LIST@  88=    51714.096678,    51423.111824,    51586.629296,    51811.537104
LIST@  92=    51864.464950,    51536.444810,    51952.774114,    51994.515232
LIST@  96=    51906.742936,    51806.122612,    51671.764134,    51969.395748
LIST@ 100=    51732.814137,    51748.078887,    51944.080882,    51518.705727
LIST@ 104=    51670.456235,    51727.549916,    51369.276622,    51169.754891
LIST@ 108=    51477.762189,    51299.040471,    51073.363475,    51209.120024
LIST@ 112=    50923.126993,    50863.447878,    50711.118115,    50725.354674
LIST@ 116=    50564.785445,    50737.946660,    50652.895918,    50489.546449
LIST@ 120=    50270.481023,    50418.082822,    50457.710334,    50304.862807
LIST@ 124=    50206.627449,    50012.789023,    50374.362809,    50333.032553
LIST@ 128=    50603.482350,    50125.074418,    50499.958333,    50394.119493
LIST@ 132=    50684.958046,    50564.370781,    50665.774864,    50824.953989
LIST@ 136=    50897.673062,    51304.855044,    51201.539134,    51452.441146
LIST@ 140=    51638.022350,    51566.230991,    51811.143987,    52416.702632
LIST@ 144=    52205.189293,    52317.472697,    52484.806174,    52721.042326
LIST@ 148=    52943.769948,    53095.478080,    52835.465209,    53324.579495
LIST@ 152=    53727.462326,    53808.856996,    54064.343581,    54275.924690
LIST@ 156=    53903.699327,    53989.808152,    54421.226554,    54512.717195
LIST@ 160=    54215.703308,    54433.349750,    54008.430109,    54048.695245
LIST@ 164=    53955.101810,    53768.891293,    53658.486259,    53457.663024
LIST@ 168=    53057.314198,    52754.350759,    52790.414178,    52203.686463
LIST@ 172=    52161.851276,    51778.980590,    50970.657071,    50733.097103
LIST@ 176=    50506.621499,    50122.811942,    49882.836703,    49302.298526
LIST@ 180=    48733.042092,    48248.450354,    48276.402780,    47982.683737
LIST@ 184=    47216.063522,    47087.504232,    47368.680632,    47152.798407
LIST@ 188=    47143.114843,    46634.684903,    46879.383703,    46340.418299
LIST@ 192=    46214.479296,    46238.017757,    46269.264601,    46135.663210
LIST@ 196=    46288.951332,    46349.884293,    46301.426396,    46321.428754
LIST@ 200=    46238.065446,    46394.619092,    46263.447124,    46090.451816
LIST@ 204=    46319.316666,    46266.462060,    46340.437562,    46474.426113
LIST@ 208=    46294.560549,    46675.043607,    46859.424831,    46949.300874
LIST@ 212=    46930.347405,    47137.765499,    47195.952086,    47035.649331
LIST@ 216=    47311.047015,    47116.197031,    47121.028353,    47147.770575
LIST@ 220=    47402.979067,    47700.711353,    47476.933483,    47676.322084
LIST@ 224=    47913.581159,    47690.644244,    47534.223356,    47960.746306
LIST@ 228=    47559.009089,    47797.177270,    47834.027811,    47846.980222
LIST@ 232=    48284.931089,    48237.677030,    48276.333499,    48427.309937
LIST@ 236=    48408.624929,    48218.520550,    48466.482312,    48669.028315
LIST@ 240=    48860.557909,    48885.583722,    48895.132327,    48930.940891
LIST@ 244=    49236.009233,    48945.619467,    49484.306357,    49413.043024
LIST@ 248=    49379.179638,    49566.531413,    49565.917988,    49733.618481
LIST@ 252=    49952.359696,    49725.764795,    50093.223562,    50014.664041
LIST@ 256=    49993.596370,    49819.905770,    50084.886558,    49822.165568
LIST@ 260=    49929.125390,    50086.141489,    50195.610230,    50159.182356
LIST@ 264=    49940.291941,    50099.065093,    50457.993395,    50302.135927
LIST@ 268=    50362.617927,    50092.065083,    49874.528049,    50019.895901
LIST@ 272=    49882.429899,    50108.824507,    50041.167937,    50138.294890
LIST@ 276=    49990.970934,    49866.418723,    49947.036674,    50270.008991
LIST@ 280=    50367.985474,    49877.584013,    50157.472281,    50099.928144
LIST@ 284=    50503.815897,    50627.076208,    51222.759427,    51450.694691
LIST@ 288=    51167.687680,    51461.036558,    51787.574890,    51988.753563
LIST@ 292=    51996.685253,    52357.669854,    52680.664397,    53080.092180
LIST@ 296=    53318.919290,    53841.818004,    53936.545407,    54314.941111
LIST@ 300=    55012.923432,    55118.599647,    55580.796707,    55803.971597
LIST@ 304=    56218.975151,    56466.005099,    56883.637075,    57446.409177
LIST@ 308=    57889.176695,    58251.465918,    58561.775646,    58741.729746
LIST@ 312=    59078.450347,    59339.245639,    59453.246956,    59834.571080
LIST@ 316=    60175.786047,    60122.472511,    60133.481839,    59806.621103
LIST@ 320=    59682.643634,    59598.911769,    58354.127282,    58262.076977
LIST@ 324=    57545.985562,    56787.497655,    56170.236366,    55052.001032
LIST@ 328=    54367.841044,    53173.962417,    52180.957836,    50982.698105
LIST@ 332=    50196.650487,    49251.224388,    48324.442881,    47540.966581
LIST@ 336=    46981.054623,    46107.760546,    45331.290248,    44682.253790
LIST@ 340=    44600.807885,    44303.238707,    43751.529175,    43405.734606
LIST@ 344=    43235.122982,    42820.721436,    42560.297352,    42627.200663
LIST@ 348=    42348.855382,    42341.832467,    42421.114492,    42019.490130
LIST@ 352=    42118.424140,    41859.274067,    41703.639804,    41874.515239
LIST@ 356=    41644.600829,    42175.746677,    41953.737489,    41874.974800
LIST@ 360=    41714.805113,    41827.359018,    41789.756612,    41456.241430
LIST@ 364=    41588.129946,    41675.161653,    41683.155808,    41551.603674
LIST@ 368=    41739.780260,    41623.025266,    41742.167882,    41425.651882
LIST@ 372=    41827.799171,    41750.472580,    41445.103938,    41351.479326
LIST@ 376=    41652.711349,    41509.318206,    41521.458063,    41592.722933
LIST@ 380=    41296.263641,    41565.955120,    41674.723280,    41739.672808
LIST@ 384=    41103.396553,    41126.235057,    41331.178554,    41503.444629
LIST@ 388=    41449.432975,    41485.367916,    41288.051686,    41198.112956
LIST@ 392=    41641.540797,    41219.339927,    40974.775048,    41097.649450
LIST@ 396=    41360.817010,    41146.102362,    41309.114343,    40891.970606
LIST@ 400=    41244.516553,    40991.011639,    41041.701125,    41071.352800
LIST@ 404=    40831.503851,    41023.502532,    40987.694008,    40595.208745
LIST@ 408=    40746.960935,    40906.825952,    40470.623877
