;========================================================================
;Dump of DataSpace 'C:\Users\engineer\Documents\data\user data\amt342\ColinBundschu(crb273)\04-08-2025\Experiment\X-Ray001 400um - FG  ON\GaMnCoO4\Ga2p Scan.VGD'
; on 8/4/2025 at 18:47:32
;========================================================================


;[Note that this file can be reloaded only if certain syntax rules are NOT broken]

$FORMAT=4


;Summary Properties present:
$PROPERTIES=SUM
DS_EXT_SUPROPID_TITLE       : VT_BSTR = 'Ga2p Scan'
DS_EXT_SUPROPID_SUBJECT     : VT_BSTR = '04-08-2025'
DS_EXT_SUPROPID_AUTHOR      : VT_BSTR = 'engineer'
DS_EXT_SUPROPID_COMMENTS    : VT_BSTR = ''
DS_EXT_SUPROPID_CREATED     : VT_DATE = 8/4/2025   21:24:43
DS_EXT_SUPROPID_SAVED       : VT_DATE = 8/4/2025   22:14:06

;Standard Properties present:
$PROPERTIES=STD
DS_GEPROPID_TECHNIQUE                       : VT_I4   = 1
DS_GEPROPID_INSTRUMENT                      : VT_BSTR = 'Nexsa_G2'
DS_GEPROPID_SOURCE_TYPE                     : VT_I4   = 1
DS_GEPROPID_GUID                            : VT_BSTR = '{B898CCDA-B45C-45AC-948C-86684DE7F88F}'
DS_GEPROPID_SOURCE_GUID                     : VT_BSTR = '{B898CCDA-B45C-45AC-948C-86684DE7F88F}'
DS_GEPROPID_EXPT_RUN_GUID                   : VT_BSTR = '{315F86BB-07DF-4D75-BCC0-21DA24A6008A}'
DS_GEPROPID_VALUE_TYPE                      : VT_I4   = 11
DS_GEPROPID_VALUE_LABEL                     : VT_BSTR = 'Counts'
DS_GEPROPID_VALUE_SYMBOL                    : VT_BSTR = 'C'
DS_GEPROPID_VALUE_UNIT                      : VT_BSTR = ''
DS_DATASTORAGEID_DATA_STORAGE_METHOD        : VT_I4   = 0
DS_SOPROPID_STYPE                           : VT_I4   = 10
DS_SOPROPID_MONO                            : VT_BOOL = True
DS_SOPROPID_ENERGY                          : VT_R4   = 1486.680054
DS_SOPROPID_VOLTAGE                         : VT_R4   = 12000.000000
DS_SOPROPID_CURRENT                         : VT_R4   = 0.010000
DS_SOPROPID_WIDTH                           : VT_R4   = 400.000000
DS_SOPROPID_LENGTH                          : VT_R4   = 400.000000
DS_SOPROPID_GUN                             : VT_I2   = 11
DS_STPROPID_POS_X                           : VT_I4   = 12029700
DS_STPROPID_POS_Y                           : VT_I4   = 20938400
DS_STPROPID_POS_Z                           : VT_I4   = 33661327
DS_STPROPID_POS_TILT                        : VT_I4   = 0
DS_STPROPID_POS_AZIM                        : VT_I4   = 0
DS_ACPROPID_START_TIME                      : VT_DATE = 8/4/2025   22:09:20
DS_ACPROPID_END_TIME                        : VT_DATE = 8/4/2025   22:14:06
DS_ACPROPID_ACQ_TIME                        : VT_R4   = 0.050000
DS_ACPROPID_PERIODS                         : VT_I4   = 10
DS_ACPROPID_MODE                            : VT_I2   = 2
DS_ACPROPID_DIRECTION                       : VT_I2   = 1
DS_ACPROPID_SIG_COMP                        : VT_BOOL = True
DS_ACPROPID_EV_SCALE                        : VT_I2   = 1
DS_SOURCE_FLOODGUNPROPID_CURRENT            : VT_R4   = 150.000000
DS_SOURCE_FLOODGUNPROPID_ENERGY             : VT_R4   = 0.200000
DS_SOURCE_FLOODGUNPROPID_DESCRIPTION        : VT_BSTR = 'Default FG03 mode'
DS_ANPROPID_MODE                            : VT_I2   = 1
DS_ANPROPID_PASS                            : VT_R4   = 50.000000
DS_ANPROPID_WORK_FTN                        : VT_R4   = 4.200000
DS_ANPROPID_LENS_MODE_NAME                  : VT_BSTR = 'Standard'
DS_ANPROPID_TXFN_COEFFS                     : VT_I4   = 4
DS_ANPROPID_TXFN_REMOVED                    : VT_BOOL = True
; Property list for DS_ANPROPID_TXFN_COEFF (expecting 4) follows:
DS_ANPROPID_TXFN_COEFF[0]                        : VT_R4   = 4.730430
DS_ANPROPID_TXFN_COEFF[1]                        : VT_R4   = 0.641629
DS_ANPROPID_TXFN_COEFF[2]                        : VT_R4   = -0.583938
DS_ANPROPID_TXFN_COEFF[3]                        : VT_R4   = 0.061485

;Extended Properties present:
$PROPERTIES=EXT
;   NONE found

;========================================================================

;DataSpace has 1 data axes as follows:
;   #=      start,     end,       numSpaceAxes
$DATAAXES=1,#empty#
    0=        0,      460,          1

;========================================================================

;DataSpace has 1 space axes as follows:
;   #=       start,         width,       numPoints,  axisType,   linear,  symbol,     unit,      label
$SPACEAXES=1
    0=     332.680000,       0.100000,      461,  ENERGY,   LINEAR,  'E',   'eV',    'Energy'

;========================================================================

;Values on axis 0
$DATA=*
LIST@   0=    33995.695098,    34194.908699,    34230.066696,    33971.265606
LIST@   4=    34068.192066,    34265.564553,    34046.531346,    33932.834056
LIST@   8=    33770.898049,    34004.988586,    33962.078786,    33988.212069
LIST@  12=    33785.242184,    34078.635414,    33950.591207,    33847.625674
LIST@  16=    33976.547273,    33876.470772,    33925.394671,    33912.711991
LIST@  20=    33993.973204,    33913.853370,    34034.664437,    33834.801697
LIST@  24=    33795.585138,    33850.066124,    33827.451337,    33928.622386
LIST@  28=    33995.486655,    34069.632038,    34253.869694,    33823.591216
LIST@  32=    34155.491992,    34236.210607,    34132.049676,    33796.791484
LIST@  36=    34146.920085,    34013.174726,    33994.664953,    34014.707970
LIST@  40=    34035.839310,    33965.530051,    33951.178230,    33956.842231
LIST@  44=    33935.581838,    33974.312405,    34059.036393,    33953.452067
LIST@  48=    34305.243080,    34063.963552,    33872.046393,    34087.644204
LIST@  52=    34411.370969,    34361.019586,    34245.905630,    34503.050395
LIST@  56=    34247.982002,    34017.178971,    34298.241112,    34150.120625
LIST@  60=    34302.130405,    34134.989242,    34290.957926,    34363.909129
LIST@  64=    34480.287442,    34320.397619,    34228.625050,    34495.444441
LIST@  68=    34694.539654,    34626.958128,    34558.747716,    34654.684076
LIST@  72=    34492.891546,    34935.797856,    34996.892915,    35091.070022
LIST@  76=    35123.832892,    35147.188307,    35450.596089,    35448.123901
LIST@  80=    35676.638803,    36027.824757,    35780.390551,    36359.039362
LIST@  84=    36325.974451,    36671.153690,    37095.755077,    37151.061066
LIST@  88=    37331.275090,    37740.545452,    37930.656200,    38284.460436
LIST@  92=    38519.086749,    39020.421490,    39387.668779,    39389.828059
LIST@  96=    39747.333040,    39787.160708,    39671.176341,    39672.455865
LIST@ 100=    39658.328127,    39372.275125,    39133.276399,    38909.991756
LIST@ 104=    38515.188755,    38131.345167,    37497.626665,    37337.551012
LIST@ 108=    36863.532545,    36475.380251,    36438.203819,    36186.041068
LIST@ 112=    35670.202992,    35629.278549,    35407.596326,    35106.869396
LIST@ 116=    34981.875689,    35083.216659,    34927.626116,    34904.944062
LIST@ 120=    34636.259309,    34816.777701,    34753.993591,    34655.798644
LIST@ 124=    34725.643875,    34711.167953,    34696.212679,    34607.176760
LIST@ 128=    34627.563218,    34889.924945,    34570.132427,    34511.498043
LIST@ 132=    34843.659909,    34526.775986,    34644.971719,    34629.601526
LIST@ 136=    34534.937665,    34525.597727,    34592.251783,    34787.860745
LIST@ 140=    34697.650779,    34679.544054,    34870.508418,    34962.874375
LIST@ 144=    34556.740209,    34689.472751,    34828.153192,    34666.077910
LIST@ 148=    34671.696985,    34793.638738,    34747.408176,    34562.669802
LIST@ 152=    34702.994715,    34387.320755,    34391.904765,    34631.936125
LIST@ 156=    34800.285416,    34692.948212,    34573.259180,    34667.214630
LIST@ 160=    34537.704407,    34749.326760,    34664.633913,    34508.023611
LIST@ 164=    34634.190964,    34736.738024,    34837.363606,    34597.873456
LIST@ 168=    34566.286098,    34652.485553,    34675.658547,    34651.087489
LIST@ 172=    34591.119265,    34577.667452,    34735.386336,    34785.710617
LIST@ 176=    34755.211546,    34769.758519,    34711.559021,    34905.628903
LIST@ 180=    34620.292826,    34636.985274,    34671.512591,    34522.663937
LIST@ 184=    34718.506943,    34419.206905,    34523.179158,    34772.863708
LIST@ 188=    34684.842127,    34694.586501,    34798.319177,    34881.426268
LIST@ 192=    34835.381398,    34603.066431,    34664.469530,    34598.916173
LIST@ 196=    34639.792459,    34693.424326,    34618.756249,    34454.102189
LIST@ 200=    34646.782953,    34566.421373,    34583.271953,    34779.460161
LIST@ 204=    34519.216900,    34594.864504,    34401.398857,    34582.927924
LIST@ 208=    34705.641590,    34528.272651,    34861.951736,    34532.018442
LIST@ 212=    34305.350048,    34366.134258,    34338.849996,    34531.883544
LIST@ 216=    34423.469173,    34704.828536,    34581.213525,    34679.855507
LIST@ 220=    34548.538668,    34422.882959,    34575.967349,    34471.429634
LIST@ 224=    34792.204633,    34621.222336,    34359.259147,    34342.775312
LIST@ 228=    34499.196892,    34278.792717,    34508.092501,    34433.474048
LIST@ 232=    34428.570171,    34276.864792,    34490.623089,    34350.239589
LIST@ 236=    34401.813651,    34379.453546,    34510.965417,    34481.165197
LIST@ 240=    34523.144201,    34304.714062,    34531.014046,    34454.613653
LIST@ 244=    34434.197570,    34305.548321,    34180.040976,    34233.460240
LIST@ 248=    34533.697224,    33983.502992,    34251.334211,    34274.008559
LIST@ 252=    34496.256595,    34221.243912,    34259.532479,    34215.842371
LIST@ 256=    34191.915818,    34118.938284,    34173.513415,    34234.795331
LIST@ 260=    34398.917448,    34175.769171,    34313.274487,    34146.578740
LIST@ 264=    34351.120088,    34212.924830,    34201.516705,    34242.000864
LIST@ 268=    34216.402857,    34226.137280,    34032.438693,    34267.882992
LIST@ 272=    34024.612225,    34288.078232,    34102.812697,    34290.721002
LIST@ 276=    34049.249062,    34226.703223,    34096.705561,    34162.304148
LIST@ 280=    34137.072198,    33986.200448,    33808.276221,    33914.332512
LIST@ 284=    33978.494914,    34123.046872,    34005.694485,    34205.702150
LIST@ 288=    34381.175226,    33977.909195,    34023.127921,    34135.785015
LIST@ 292=    34254.866413,    34166.675257,    34172.918341,    33891.090472
LIST@ 296=    34094.588742,    34085.877531,    34066.494134,    33918.276556
LIST@ 300=    34107.979282,    34151.975563,    33968.646737,    34086.888888
LIST@ 304=    33945.137923,    33826.643442,    33933.409856,    34042.261573
LIST@ 308=    33873.415698,    34011.420034,    33871.994837,    34065.257251
LIST@ 312=    34130.026445,    33902.536614,    33856.666895,    34062.914776
LIST@ 316=    34120.674170,    33960.597272,    34356.257708,    34324.256577
LIST@ 320=    33925.443895,    34222.379027,    34317.484445,    34285.007446
LIST@ 324=    34584.592555,    34215.896686,    34524.485538,    34626.022062
LIST@ 328=    34542.432374,    34410.152032,    34510.652524,    34742.747724
LIST@ 332=    34452.016427,    34645.209416,    34734.602244,    34818.253580
LIST@ 336=    34887.359763,    35068.466365,    35006.098621,    35194.883298
LIST@ 340=    35420.528217,    35465.705142,    35354.837942,    35682.113368
LIST@ 344=    35773.654287,    36259.999763,    36269.373674,    36721.533662
LIST@ 348=    36742.553908,    37425.616917,    37536.733258,    37990.743206
LIST@ 352=    38466.804237,    38757.099591,    39100.422168,    39592.733721
LIST@ 356=    40086.543633,    41238.346059,    41618.268180,    42454.770589
LIST@ 360=    42760.899435,    43395.524054,    44155.285662,    44463.157015
LIST@ 364=    44938.914793,    45152.155988,    45448.005534,    45406.868069
LIST@ 368=    45132.845530,    44807.354316,    44437.330895,    44155.568216
LIST@ 372=    43389.490012,    42541.854574,    41840.728689,    41056.852980
LIST@ 376=    40280.401264,    39471.146190,    38562.509734,    38017.968528
LIST@ 380=    37560.306060,    36545.662471,    36328.934903,    35888.510613
LIST@ 384=    35543.473262,    35497.833534,    35487.280529,    35089.463266
LIST@ 388=    34845.344552,    34902.189158,    34766.042687,    34494.953165
LIST@ 392=    34443.759780,    34499.513447,    34436.010821,    34672.714948
LIST@ 396=    34417.381573,    34350.401049,    34216.923099,    34275.183980
LIST@ 400=    34303.776961,    34218.440942,    34358.901656,    34206.572427
LIST@ 404=    34241.707697,    34240.931806,    34406.382782,    34449.388335
LIST@ 408=    34362.355239,    33918.181063,    34292.522731,    34177.214353
LIST@ 412=    34135.697933,    34428.209084,    34227.909489,    34137.819933
LIST@ 416=    34393.983149,    34058.723830,    34334.257876,    34442.651165
LIST@ 420=    34298.332488,    34244.171869,    34215.954892,    34551.704258
LIST@ 424=    34236.754671,    34097.383061,    34202.471129,    34073.246096
LIST@ 428=    34242.320106,    34423.682741,    34270.137826,    34299.086348
LIST@ 432=    34175.220805,    34474.731223,    34354.447875,    34318.497796
LIST@ 436=    34357.694648,    34172.087953,    34301.804008,    34206.931218
LIST@ 440=    34060.853039,    34550.738206,    34362.092419,    34042.212324
LIST@ 444=    34314.178612,    34303.468127,    34126.281759,    34031.384665
LIST@ 448=    34408.553850,    34692.376830,    34366.340301,    34387.479595
LIST@ 452=    34560.489198,    34409.685285,    34546.462732,    34583.770639
LIST@ 456=    34282.912308,    34448.324937,    34295.709657,    34377.772185
LIST@ 460=    34399.817944
