;========================================================================
;Dump of DataSpace 'C:\Users\engineer\Documents\data\user data\amt342\ColinBundschu(crb273)\04-08-2025\Experiment\X-Ray001 400um - FG  ON\GaMnCoO4\Mn2p Scan.VGD'
; on 8/4/2025 at 18:47:32
;========================================================================


;[Note that this file can be reloaded only if certain syntax rules are NOT broken]

$FORMAT=4


;Summary Properties present:
$PROPERTIES=SUM
DS_EXT_SUPROPID_TITLE       : VT_BSTR = 'Mn2p Scan'
DS_EXT_SUPROPID_SUBJECT     : VT_BSTR = '04-08-2025'
DS_EXT_SUPROPID_AUTHOR      : VT_BSTR = 'engineer'
DS_EXT_SUPROPID_COMMENTS    : VT_BSTR = ''
DS_EXT_SUPROPID_CREATED     : VT_DATE = 8/4/2025   21:24:43
DS_EXT_SUPROPID_SAVED       : VT_DATE = 8/4/2025   22:17:16

;Standard Properties present:
$PROPERTIES=STD
DS_GEPROPID_TECHNIQUE                       : VT_I4   = 1
DS_GEPROPID_INSTRUMENT                      : VT_BSTR = 'Nexsa_G2'
DS_GEPROPID_SOURCE_TYPE                     : VT_I4   = 1
DS_GEPROPID_GUID                            : VT_BSTR = '{814BB522-76BB-4374-9B54-B65D5B4BEE76}'
DS_GEPROPID_SOURCE_GUID                     : VT_BSTR = '{814BB522-76BB-4374-9B54-B65D5B4BEE76}'
DS_GEPROPID_EXPT_RUN_GUID                   : VT_BSTR = '{315F86BB-07DF-4D75-BCC0-21DA24A6008A}'
DS_GEPROPID_VALUE_TYPE                      : VT_I4   = 11
DS_GEPROPID_VALUE_LABEL                     : VT_BSTR = 'Counts'
DS_GEPROPID_VALUE_SYMBOL                    : VT_BSTR = 'C'
DS_GEPROPID_VALUE_UNIT                      : VT_BSTR = ''
DS_DATASTORAGEID_DATA_STORAGE_METHOD        : VT_I4   = 0
DS_SOPROPID_STYPE                           : VT_I4   = 10
DS_SOPROPID_MONO                            : VT_BOOL = True
DS_SOPROPID_ENERGY                          : VT_R4   = 1486.680054
DS_SOPROPID_VOLTAGE                         : VT_R4   = 12000.000000
DS_SOPROPID_CURRENT                         : VT_R4   = 0.010000
DS_SOPROPID_WIDTH                           : VT_R4   = 400.000000
DS_SOPROPID_LENGTH                          : VT_R4   = 400.000000
DS_SOPROPID_GUN                             : VT_I2   = 11
DS_STPROPID_POS_X                           : VT_I4   = 12029700
DS_STPROPID_POS_Y                           : VT_I4   = 20938400
DS_STPROPID_POS_Z                           : VT_I4   = 33661327
DS_STPROPID_POS_TILT                        : VT_I4   = 0
DS_STPROPID_POS_AZIM                        : VT_I4   = 0
DS_ACPROPID_START_TIME                      : VT_DATE = 8/4/2025   22:14:06
DS_ACPROPID_END_TIME                        : VT_DATE = 8/4/2025   22:17:16
DS_ACPROPID_ACQ_TIME                        : VT_R4   = 0.050000
DS_ACPROPID_PERIODS                         : VT_I4   = 10
DS_ACPROPID_MODE                            : VT_I2   = 2
DS_ACPROPID_DIRECTION                       : VT_I2   = 1
DS_ACPROPID_SIG_COMP                        : VT_BOOL = True
DS_ACPROPID_EV_SCALE                        : VT_I2   = 1
DS_SOURCE_FLOODGUNPROPID_CURRENT            : VT_R4   = 150.000000
DS_SOURCE_FLOODGUNPROPID_ENERGY             : VT_R4   = 0.200000
DS_SOURCE_FLOODGUNPROPID_DESCRIPTION        : VT_BSTR = 'Default FG03 mode'
DS_ANPROPID_MODE                            : VT_I2   = 1
DS_ANPROPID_PASS                            : VT_R4   = 50.000000
DS_ANPROPID_WORK_FTN                        : VT_R4   = 4.200000
DS_ANPROPID_LENS_MODE_NAME                  : VT_BSTR = 'Standard'
DS_ANPROPID_TXFN_COEFFS                     : VT_I4   = 4
DS_ANPROPID_TXFN_REMOVED                    : VT_BOOL = True
; Property list for DS_ANPROPID_TXFN_COEFF (expecting 4) follows:
DS_ANPROPID_TXFN_COEFF[0]                        : VT_R4   = 4.730430
DS_ANPROPID_TXFN_COEFF[1]                        : VT_R4   = 0.641629
DS_ANPROPID_TXFN_COEFF[2]                        : VT_R4   = -0.583938
DS_ANPROPID_TXFN_COEFF[3]                        : VT_R4   = 0.061485

;Extended Properties present:
$PROPERTIES=EXT
;   NONE found

;========================================================================

;DataSpace has 1 data axes as follows:
;   #=      start,     end,       numSpaceAxes
$DATAAXES=1,#empty#
    0=        0,      280,          1

;========================================================================

;DataSpace has 1 space axes as follows:
;   #=       start,         width,       numPoints,  axisType,   linear,  symbol,     unit,      label
$SPACEAXES=1
    0=     826.680000,       0.100000,      281,  ENERGY,   LINEAR,  'E',   'eV',    'Energy'

;========================================================================

;Values on axis 0
$DATA=*
LIST@   0=    20914.769398,    20984.225120,    20917.935920,    21050.764529
LIST@   4=    21127.953723,    20932.070821,    20941.819166,    20916.487969
LIST@   8=    21081.632190,    20897.029566,    21013.988132,    20918.918786
LIST@  12=    21088.254688,    20859.082791,    20872.719859,    20848.592929
LIST@  16=    20987.822842,    21019.376596,    21090.266698,    21062.523227
LIST@  20=    21255.965142,    21128.199455,    20984.350685,    21197.380866
LIST@  24=    21197.340041,    21137.454629,    21330.305968,    21207.314090
LIST@  28=    21388.805659,    21123.228631,    21341.333337,    21246.896536
LIST@  32=    21427.871621,    21457.382322,    21563.557105,    21394.049108
LIST@  36=    21659.494332,    21640.173200,    21860.044130,    21910.917547
LIST@  40=    21935.844351,    21986.198056,    22213.425413,    22411.180265
LIST@  44=    22413.757624,    22654.934952,    22680.152233,    22927.650048
LIST@  48=    23054.365845,    23144.003743,    23322.394104,    23440.560035
LIST@  52=    23389.872978,    23704.632515,    24110.612297,    24353.256636
LIST@  56=    24386.784380,    24126.854821,    24613.239458,    25001.111508
LIST@  60=    25091.137218,    25161.438538,    25559.794592,    25500.612384
LIST@  64=    25605.736860,    25664.111835,    25822.528132,    25573.219385
LIST@  68=    25998.603419,    25814.375623,    25823.649038,    25731.659928
LIST@  72=    25674.203588,    25574.244676,    25436.229833,    25476.175014
LIST@  76=    25166.824535,    25079.915849,    24827.448868,    24726.760472
LIST@  80=    24379.932846,    24137.964212,    23897.598950,    23441.578675
LIST@  84=    23275.941879,    22834.762998,    22368.283299,    22299.900527
LIST@  88=    21958.888059,    21784.177195,    21300.725538,    21020.681821
LIST@  92=    21090.601867,    20743.996161,    20529.322863,    20379.358906
LIST@  96=    20178.455494,    20160.915570,    19640.584970,    19666.138995
LIST@ 100=    19456.939020,    19436.838870,    19357.410847,    19343.801811
LIST@ 104=    19029.862328,    19087.229169,    19032.417390,    18844.808656
LIST@ 108=    18905.647979,    18988.054644,    18415.245479,    18536.682066
LIST@ 112=    18667.286999,    18315.270540,    18549.823353,    18689.917769
LIST@ 116=    18557.752239,    18756.937459,    18597.944633,    18545.065550
LIST@ 120=    18850.118190,    18960.933549,    18811.825253,    18839.845451
LIST@ 124=    18670.558920,    18603.956767,    18763.154793,    18745.908503
LIST@ 128=    18871.238992,    18872.435903,    19331.960680,    19164.153822
LIST@ 132=    18997.455420,    19062.107945,    19089.639405,    19269.529188
LIST@ 136=    19265.755175,    19285.995311,    19614.721079,    19472.299261
LIST@ 140=    19675.912913,    19517.100308,    19775.474815,    19746.672909
LIST@ 144=    19966.592319,    20053.348653,    19823.759833,    20318.546463
LIST@ 148=    20394.470104,    20528.039034,    20512.653202,    20933.366100
LIST@ 152=    20938.611177,    21146.935668,    21317.025050,    21544.247020
LIST@ 156=    21455.882964,    22129.602695,    22089.443208,    22558.016874
LIST@ 160=    22574.790958,    22756.645034,    22773.083968,    23328.351996
LIST@ 164=    23540.290772,    23892.231970,    24063.611949,    24418.171308
LIST@ 168=    24748.365219,    25201.790751,    25491.840053,    25696.535905
LIST@ 172=    25877.878348,    26565.190961,    26782.166847,    27225.371864
LIST@ 176=    27353.395485,    27734.833290,    27909.273043,    28302.092147
LIST@ 180=    28346.421928,    28610.894171,    28951.985401,    29082.836607
LIST@ 184=    29160.144269,    28894.845786,    28913.831113,    29106.802176
LIST@ 188=    28920.210164,    28453.678686,    28350.187897,    28282.964521
LIST@ 192=    27852.965231,    27641.863574,    27134.531288,    26855.430248
LIST@ 196=    26087.959999,    25665.205835,    24778.739654,    24225.508777
LIST@ 200=    23719.029723,    22880.453282,    22340.281269,    21465.962404
LIST@ 204=    20781.708305,    20172.825861,    19388.095814,    19006.180349
LIST@ 208=    18253.231183,    17733.402152,    17526.334906,    16928.402346
LIST@ 212=    16439.531626,    16173.249147,    15850.622066,    15582.557343
LIST@ 216=    15508.647131,    15124.604821,    15051.057027,    14937.638421
LIST@ 220=    14749.516893,    14746.964196,    14723.201119,    14736.905324
LIST@ 224=    14662.336769,    14439.860768,    14559.142531,    14511.902635
LIST@ 228=    14392.044378,    14542.191153,    14417.961711,    14618.219502
LIST@ 232=    14444.885415,    14418.701340,    14352.536007,    14364.919786
LIST@ 236=    14444.838268,    14396.745678,    14507.016347,    14277.589268
LIST@ 240=    14399.279853,    14316.260746,    14301.879547,    14464.084933
LIST@ 244=    14333.330786,    14443.895536,    14460.944782,    14341.370444
LIST@ 248=    14553.393950,    14272.473618,    14430.734069,    14301.681741
LIST@ 252=    14344.721717,    14366.966329,    14447.612807,    14323.703898
LIST@ 256=    14199.886750,    14286.593330,    14471.724626,    14305.482865
LIST@ 260=    14584.288997,    14295.888539,    14314.840868,    14254.828145
LIST@ 264=    14086.860634,    14424.611860,    14178.519360,    14420.234651
LIST@ 268=    14286.945398,    14417.202041,    14487.324746,    14225.359689
LIST@ 272=    14379.636631,    14327.266916,    14394.841123,    14416.424667
LIST@ 276=    14429.233183,    14359.270719,    14195.975425,    14204.408420
LIST@ 280=    14382.599764
