;========================================================================
;Dump of DataSpace 'C:\Users\engineer\Documents\data\user data\amt342\ColinBundschu(crb273)\04-08-2025\Experiment\X-Ray001 400um - FG  ON\GaMnCoO4\XPS Survey.VGD'
; on 8/4/2025 at 18:47:32
;========================================================================


;[Note that this file can be reloaded only if certain syntax rules are NOT broken]

$FORMAT=4


;Summary Properties present:
$PROPERTIES=SUM
DS_EXT_SUPROPID_TITLE       : VT_BSTR = 'XPS Survey'
DS_EXT_SUPROPID_SUBJECT     : VT_BSTR = '04-08-2025'
DS_EXT_SUPROPID_AUTHOR      : VT_BSTR = 'engineer'
DS_EXT_SUPROPID_COMMENTS    : VT_BSTR = ''
DS_EXT_SUPROPID_CREATED     : VT_DATE = 8/4/2025   21:24:43
DS_EXT_SUPROPID_SAVED       : VT_DATE = 8/4/2025   22:06:51

;Standard Properties present:
$PROPERTIES=STD
DS_GEPROPID_TECHNIQUE                       : VT_I4   = 1
DS_GEPROPID_INSTRUMENT                      : VT_BSTR = 'Nexsa_G2'
DS_GEPROPID_SOURCE_TYPE                     : VT_I4   = 1
DS_GEPROPID_GUID                            : VT_BSTR = '{48BB6F2A-3E9D-4F8E-B3C7-37CC181AD595}'
DS_GEPROPID_SOURCE_GUID                     : VT_BSTR = '{48BB6F2A-3E9D-4F8E-B3C7-37CC181AD595}'
DS_GEPROPID_EXPT_RUN_GUID                   : VT_BSTR = '{315F86BB-07DF-4D75-BCC0-21DA24A6008A}'
DS_GEPROPID_VALUE_TYPE                      : VT_I4   = 11
DS_GEPROPID_VALUE_LABEL                     : VT_BSTR = 'Counts'
DS_GEPROPID_VALUE_SYMBOL                    : VT_BSTR = 'C'
DS_GEPROPID_VALUE_UNIT                      : VT_BSTR = ''
DS_DATASTORAGEID_DATA_STORAGE_METHOD        : VT_I4   = 0
DS_SOPROPID_STYPE                           : VT_I4   = 10
DS_SOPROPID_MONO                            : VT_BOOL = True
DS_SOPROPID_ENERGY                          : VT_R4   = 1486.680054
DS_SOPROPID_VOLTAGE                         : VT_R4   = 12000.000000
DS_SOPROPID_CURRENT                         : VT_R4   = 0.010000
DS_SOPROPID_WIDTH                           : VT_R4   = 400.000000
DS_SOPROPID_LENGTH                          : VT_R4   = 400.000000
DS_SOPROPID_GUN                             : VT_I2   = 11
DS_STPROPID_POS_X                           : VT_I4   = 12029700
DS_STPROPID_POS_Y                           : VT_I4   = 20938400
DS_STPROPID_POS_Z                           : VT_I4   = 33661327
DS_STPROPID_POS_TILT                        : VT_I4   = 0
DS_STPROPID_POS_AZIM                        : VT_I4   = 0
DS_ACPROPID_START_TIME                      : VT_DATE = 8/4/2025   22:05:08
DS_ACPROPID_END_TIME                        : VT_DATE = 8/4/2025   22:06:51
DS_ACPROPID_ACQ_TIME                        : VT_R4   = 0.010000
DS_ACPROPID_PERIODS                         : VT_I4   = 4
DS_ACPROPID_MODE                            : VT_I2   = 2
DS_ACPROPID_DIRECTION                       : VT_I2   = 1
DS_ACPROPID_SIG_COMP                        : VT_BOOL = True
DS_ACPROPID_EV_SCALE                        : VT_I2   = 1
DS_SOURCE_FLOODGUNPROPID_CURRENT            : VT_R4   = 150.000000
DS_SOURCE_FLOODGUNPROPID_ENERGY             : VT_R4   = 0.200000
DS_SOURCE_FLOODGUNPROPID_DESCRIPTION        : VT_BSTR = 'Default FG03 mode'
DS_ANPROPID_MODE                            : VT_I2   = 1
DS_ANPROPID_PASS                            : VT_R4   = 200.000000
DS_ANPROPID_WORK_FTN                        : VT_R4   = 4.200000
DS_ANPROPID_LENS_MODE_NAME                  : VT_BSTR = 'Standard'
DS_ANPROPID_TXFN_COEFFS                     : VT_I4   = 4
DS_ANPROPID_TXFN_REMOVED                    : VT_BOOL = True
; Property list for DS_ANPROPID_TXFN_COEFF (expecting 4) follows:
DS_ANPROPID_TXFN_COEFF[0]                        : VT_R4   = 4.730430
DS_ANPROPID_TXFN_COEFF[1]                        : VT_R4   = 0.641629
DS_ANPROPID_TXFN_COEFF[2]                        : VT_R4   = -0.583938
DS_ANPROPID_TXFN_COEFF[3]                        : VT_R4   = 0.061485

;Extended Properties present:
$PROPERTIES=EXT
;   NONE found

;========================================================================

;DataSpace has 1 data axes as follows:
;   #=      start,     end,       numSpaceAxes
$DATAAXES=1,#empty#
    0=        0,     1360,          1

;========================================================================

;DataSpace has 1 space axes as follows:
;   #=       start,         width,       numPoints,  axisType,   linear,  symbol,     unit,      label
$SPACEAXES=1
    0=     136.680000,       1.000000,     1361,  ENERGY,   LINEAR,  'E',   'eV',    'Energy'

;========================================================================

;Values on axis 0
$DATA=*
LIST@   0=    22992.823887,    23017.570159,    23456.819554,    23061.587937
LIST@   4=    23190.759990,    23068.978707,    22643.074866,    22623.549807
LIST@   8=    22682.655037,    22572.805535,    22678.692400,    22211.649971
LIST@  12=    22399.853852,    22430.647073,    21990.609647,    22191.466806
LIST@  16=    21836.426339,    21706.325655,    21632.033049,    21676.471232
LIST@  20=    21695.738960,    21777.773656,    21618.945869,    21210.445874
LIST@  24=    21489.606918,    21400.314276,    21596.806992,    21424.379874
LIST@  28=    21157.608682,    21586.533299,    21042.723356,    21021.272153
LIST@  32=    21219.317299,    20947.866854,    21397.990893,    20933.329443
LIST@  36=    20749.530979,    21048.248429,    20883.708254,    20985.492280
LIST@  40=    21383.162129,    20867.475389,    20501.382859,    21075.662676
LIST@  44=    20775.924770,    20791.064233,    20912.675135,    20826.600475
LIST@  48=    20768.323460,    20848.254574,    20564.790330,    20660.474009
LIST@  52=    20692.339907,    20547.183526,    20201.674411,    20540.064121
LIST@  56=    20362.206865,    20404.402586,    20551.318855,    20104.719297
LIST@  60=    20332.468703,    20364.116534,    20131.635259,    20332.324823
LIST@  64=    20839.822235,    20479.451806,    20380.021559,    20162.438786
LIST@  68=    20266.000183,    20183.757645,    20522.994816,    20250.920938
LIST@  72=    20435.037786,    20395.430055,    20049.028531,    20479.491843
LIST@  76=    20353.028927,    20060.644688,    20197.332770,    20010.230848
LIST@  80=    20345.897742,    20451.404350,    20090.736574,    20053.446642
LIST@  84=    20303.615996,    20113.975672,    20582.996915,    20393.450787
LIST@  88=    20398.206791,    20193.938899,    20151.274845,    20395.989599
LIST@  92=    20258.341965,    20257.153286,    20376.610636,    20672.190764
LIST@  96=    20110.609322,    20503.779121,    20979.010304,    20551.589524
LIST@ 100=    20660.302230,    20611.176160,    20347.253146,    20710.965709
LIST@ 104=    20594.028381,    20486.776812,    20823.398030,    20693.771446
LIST@ 108=    20914.464591,    20759.192252,    21068.565101,    20978.568822
LIST@ 112=    20797.783472,    20747.222176,    20770.809488,    20844.879778
LIST@ 116=    20931.730260,    21247.614032,    21224.324600,    21121.418048
LIST@ 120=    21389.856977,    21109.088001,    21356.497810,    21450.523036
LIST@ 124=    21353.691496,    21437.247025,    21254.099937,    21444.929900
LIST@ 128=    21344.836317,    21076.143054,    20695.160555,    20595.204673
LIST@ 132=    20334.437889,    20146.017243,    19879.812720,    19904.148668
LIST@ 136=    19938.861576,    20113.860851,    19673.441244,    19575.486347
LIST@ 140=    19683.860030,    19681.695470,    19638.516799,    19774.219101
LIST@ 144=    19727.894795,    19733.767350,    19536.063996,    19857.985582
LIST@ 148=    19722.732745,    19609.334264,    19856.634536,    19767.988649
LIST@ 152=    19524.163148,    19903.606087,    19577.695628,    19803.034609
LIST@ 156=    19534.301824,    19640.706224,    19736.909116,    20053.421750
LIST@ 160=    19768.451881,    19962.392145,    19740.991553,    20014.002210
LIST@ 164=    20098.390415,    19951.969679,    20036.134714,    19984.989757
LIST@ 168=    20268.171979,    19942.059576,    20020.991601,    20157.097155
LIST@ 172=    20117.572958,    20170.217693,    20045.235937,    20170.250334
LIST@ 176=    20170.615579,    20124.180409,    20251.087852,    19926.135011
LIST@ 180=    20204.710880,    20272.244792,    20452.714250,    20540.696460
LIST@ 184=    20471.692428,    20391.052739,    20448.870945,    20326.352470
LIST@ 188=    20551.812990,    20239.024385,    20311.502968,    20293.243094
LIST@ 192=    20118.812327,    20478.736791,    20362.446568,    20156.286367
LIST@ 196=    20401.869488,    20067.025646,    20219.653594,    20565.768985
LIST@ 200=    20458.834003,    20485.340690,    20239.930008,    20747.439448
LIST@ 204=    21475.398779,    22480.386522,    22686.632100,    21632.230088
LIST@ 208=    20791.429374,    20471.722044,    20522.029340,    20791.294372
LIST@ 212=    20667.043845,    20467.296604,    20592.918856,    20450.633321
LIST@ 216=    20561.245919,    20624.171051,    20034.736866,    20167.355120
LIST@ 220=    20175.962323,    20137.463516,    20163.908641,    20228.777654
LIST@ 224=    20261.878917,    20343.965763,    19690.474343,    20273.646639
LIST@ 228=    20455.710624,    20538.821444,    21272.341516,    23016.589246
LIST@ 232=    24860.383324,    24715.991476,    22084.726111,    21039.363197
LIST@ 236=    20420.456751,    20248.594999,    19991.516106,    20070.908547
LIST@ 240=    20303.824914,    20201.069313,    20166.097921,    20501.590710
LIST@ 244=    20345.718129,    20284.243257,    20155.350098,    20280.304918
LIST@ 248=    20632.475761,    20659.697779,    20667.638825,    20530.898827
LIST@ 252=    20498.388409,    20468.288946,    20407.290507,    20498.048952
LIST@ 256=    20508.027558,    20510.882482,    20502.870392,    20183.727050
LIST@ 260=    20618.652159,    20640.436654,    20820.402984,    20451.397843
LIST@ 264=    20831.790529,    20640.091983,    20649.950289,    20984.300956
LIST@ 268=    20809.086903,    20840.856044,    21151.883329,    21355.121116
LIST@ 272=    21150.425203,    21192.804468,    21047.554915,    21133.624689
LIST@ 276=    21233.752309,    20864.041182,    20999.575014,    21135.886332
LIST@ 280=    21144.590517,    20834.518807,    21103.660539,    20929.021899
LIST@ 284=    21183.891526,    21470.710885,    21201.738364,    21284.574758
LIST@ 288=    21615.458828,    21474.595719,    21572.899039,    21597.778342
LIST@ 292=    21579.404957,    21596.263402,    21698.214165,    21811.752714
LIST@ 296=    21786.116874,    21611.935761,    21680.954667,    21935.401619
LIST@ 300=    21938.703599,    21914.684378,    21745.331608,    21756.075462
LIST@ 304=    22094.660493,    22124.858925,    22061.943469,    22035.678457
LIST@ 308=    22124.503200,    21966.355594,    22159.392002,    22155.019377
LIST@ 312=    22059.943209,    22490.518255,    22534.197310,    22644.717412
LIST@ 316=    22332.411751,    22189.008040,    22416.328453,    22374.280248
LIST@ 320=    22503.687265,    22632.304484,    22500.346473,    22714.911500
LIST@ 324=    22579.176771,    22589.790983,    22801.157189,    23021.052708
LIST@ 328=    23041.409479,    22721.760050,    22814.814514,    22773.955804
LIST@ 332=    22742.530484,    22822.831761,    22795.437933,    23059.483621
LIST@ 336=    23032.464673,    22773.460874,    22913.516422,    23148.301847
LIST@ 340=    23191.957931,    23038.581412,    23250.599024,    22822.284682
LIST@ 344=    23013.036571,    22878.042157,    23257.543622,    23415.902605
LIST@ 348=    23390.684696,    23176.955166,    23389.853555,    23558.744626
LIST@ 352=    23490.647229,    23911.584512,    23952.911468,    23744.149943
LIST@ 356=    23665.037549,    23618.025848,    23370.828860,    23154.206060
LIST@ 360=    23371.236034,    23155.419361,    23101.347596,    22866.126276
LIST@ 364=    22812.627542,    22748.498024,    22853.522676,    22767.815513
LIST@ 368=    22958.665823,    23254.906167,    22876.211368,    23529.539607
LIST@ 372=    23822.150170,    24272.808518,    24755.493505,    24754.155345
LIST@ 376=    24413.784910,    23773.758911,    23522.070614,    23035.030473
LIST@ 380=    22846.746163,    22580.672319,    22228.416482,    22373.984118
LIST@ 384=    21964.459469,    21980.824108,    21914.226949,    21854.732360
LIST@ 388=    22025.993480,    21999.207851,    21848.470468,    21739.947065
LIST@ 392=    21759.291765,    21644.485905,    21870.458412,    21801.727557
LIST@ 396=    21543.714224,    21656.216737,    21583.285382,    21703.561915
LIST@ 400=    21666.460273,    21584.686456,    21662.881218,    21561.946890
LIST@ 404=    21475.337380,    21388.806948,    21580.925734,    21042.502470
LIST@ 408=    21259.321932,    20725.343275,    20997.839143,    20845.021164
LIST@ 412=    21065.075890,    20968.639243,    20881.836390,    20839.647950
LIST@ 416=    21032.626659,    21052.943634,    21197.121447,    21086.813253
LIST@ 420=    21027.574429,    21285.026849,    21190.805099,    21241.541530
LIST@ 424=    21232.150592,    21107.642891,    20687.842016,    20479.162827
LIST@ 428=    20685.599090,    20629.450135,    20573.765280,    20460.071947
LIST@ 432=    20595.976170,    20337.687981,    20575.149025,    20359.083177
LIST@ 436=    20274.073573,    20413.795037,    20452.128227,    20721.724068
LIST@ 440=    20684.716542,    20584.669858,    20573.963537,    20872.792381
LIST@ 444=    21102.151232,    21086.933618,    20962.025329,    21269.161342
LIST@ 448=    21094.329344,    21296.896035,    21134.497448,    20980.591556
LIST@ 452=    21159.949129,    20775.759058,    20614.679812,    20442.827896
LIST@ 456=    20523.761285,    20233.382656,    20128.262106,    20106.749403
LIST@ 460=    19743.668208,    20129.166011,    20043.462436,    20166.700396
LIST@ 464=    19940.413689,    20103.794372,    20165.029145,    20134.367477
LIST@ 468=    19990.714059,    20185.601642,    20188.157722,    20296.474450
LIST@ 472=    20093.641074,    20297.515196,    20161.718675,    20068.051773
LIST@ 476=    20220.423743,    20180.936971,    20318.694780,    20129.497986
LIST@ 480=    20603.866867,    20513.239764,    20318.859709,    20446.673061
LIST@ 484=    20445.585639,    20535.843400,    20354.942935,    20379.366962
LIST@ 488=    20607.347107,    20555.860193,    20317.430841,    20255.479253
LIST@ 492=    20820.502404,    20724.874029,    20700.624537,    20646.222985
LIST@ 496=    20756.263728,    21034.045747,    20940.607304,    20960.153643
LIST@ 500=    20875.411021,    20983.686201,    21297.959903,    20738.459833
LIST@ 504=    20748.032477,    20869.535798,    20831.769142,    20467.150255
LIST@ 508=    20828.982981,    20855.926347,    21035.930883,    20934.208999
LIST@ 512=    20697.336647,    20597.757106,    20603.901122,    20541.773209
LIST@ 516=    20694.131138,    20426.589013,    20425.216289,    20176.656855
LIST@ 520=    20184.880852,    20059.950464,    20014.324683,    19910.531810
LIST@ 524=    19903.956679,    19877.461820,    19695.692413,    19814.045995
LIST@ 528=    20045.472907,    19881.249731,    19935.898336,    19600.246739
LIST@ 532=    19644.714767,    19913.829701,    19763.277311,    19644.982629
LIST@ 536=    19490.905595,    19597.977367,    19611.851261,    19147.728060
LIST@ 540=    19699.080894,    19457.641866,    19607.474726,    19909.852992
LIST@ 544=    19924.893653,    20203.176775,    20367.090334,    20504.993029
LIST@ 548=    20395.507151,    20438.401827,    20172.601848,    20198.158984
LIST@ 552=    20691.545731,    21290.813206,    21142.094057,    20444.398690
LIST@ 556=    19146.643860,    18564.991890,    18634.244937,    18885.565801
LIST@ 560=    18924.271278,    19106.411855,    19486.320830,    19658.639894
LIST@ 564=    19768.468344,    19897.457282,    20052.526857,    20888.593001
LIST@ 568=    22136.188907,    22994.265424,    22056.178260,    19512.547750
LIST@ 572=    17625.224319,    17139.616574,    16796.517063,    16724.918529
LIST@ 576=    16704.352674,    16582.145026,    16435.556381,    16298.621978
LIST@ 580=    15973.953353,    15847.833718,    15242.731152,    15130.890862
LIST@ 584=    14854.987823,    14393.996592,    14650.506697,    14577.974284
LIST@ 588=    14383.173136,    14431.012827,    14249.544266,    14382.175020
LIST@ 592=    14136.741253,    14147.981247,    14238.494451,    14150.929905
LIST@ 596=    14068.818929,    14118.628506,    14027.125495,    14102.005395
LIST@ 600=    14175.164027,    14153.566017,    13982.278601,    14234.731230
LIST@ 604=    14296.836728,    14169.775310,    14264.966507,    14313.806478
LIST@ 608=    14220.025639,    14419.899913,    14200.067609,    14304.405834
LIST@ 612=    14548.365242,    14341.839499,    14562.660216,    14589.919819
LIST@ 616=    14333.476109,    14204.939070,    14410.792715,    14626.421958
LIST@ 620=    14495.473537,    14481.439340,    14391.569326,    14521.604824
LIST@ 624=    14377.687750,    14582.771340,    14581.823433,    14513.003116
LIST@ 628=    14949.777255,    15056.854379,    14983.109006,    15368.221865
LIST@ 632=    15213.196396,    15235.535806,    15448.894452,    15279.935263
LIST@ 636=    15320.297653,    15225.158175,    15212.906449,    15026.605005
LIST@ 640=    14687.076234,    14361.282627,    14103.299402,    14153.972662
LIST@ 644=    13804.122906,    13961.493841,    13953.752230,    14054.392255
LIST@ 648=    13943.755565,    14071.664539,    14176.311943,    14216.637890
LIST@ 652=    14002.869644,    14087.060157,    13873.878466,    13990.564439
LIST@ 656=    13884.812083,    13424.951906,    13791.954144,    13713.528616
LIST@ 660=    13717.165650,    13683.508783,    13607.573100,    13742.626189
LIST@ 664=    13701.352985,    13603.444626,    13782.796387,    13862.828312
LIST@ 668=    13951.800213,    13823.126530,    14041.794772,    14050.788884
LIST@ 672=    13872.936502,    14015.521885,    13906.705661,    13947.085375
LIST@ 676=    13859.813018,    14007.255185,    13799.182641,    13868.508271
LIST@ 680=    13758.163045,    13852.774402,    13725.878817,    13783.960937
LIST@ 684=    13795.687755,    13891.029185,    13748.863741,    13875.710137
LIST@ 688=    13722.801863,    13637.013949,    13320.342371,    13540.518583
LIST@ 692=    13471.210020,    13795.735302,    14203.704754,    15238.888105
LIST@ 696=    15878.140021,    15923.728514,    14596.830965,    13296.244893
LIST@ 700=    12465.885483,    12014.880935,    12072.549622,    12307.612059
LIST@ 704=    12774.814129,    13609.958611,    15038.558165,    16727.360418
LIST@ 708=    17494.242207,    16102.898750,    13384.190771,    10896.562080
LIST@ 712=     9634.494761,     9461.803851,     9555.166967,     9273.213617
LIST@ 716=     9100.817145,     9206.869117,     9341.909719,     9262.916210
LIST@ 720=     9227.521518,     9391.385613,     9291.604483,     9472.341377
LIST@ 724=     9329.948335,     9255.458677,     9270.174579,     9301.557384
LIST@ 728=     9282.527929,     9565.647479,     9529.356366,     9442.441209
LIST@ 732=     9556.522931,     9366.415453,     9347.951934,     9588.980341
LIST@ 736=     9461.448903,     9456.062642,     9511.987702,     9533.146213
LIST@ 740=     9340.758143,     9556.889434,     9587.717668,     9331.638439
LIST@ 744=     9455.257876,     9575.179458,     9514.855918,     9696.760373
LIST@ 748=     9700.967591,     9935.517342,     9684.338017,     9790.641278
LIST@ 752=     9825.305777,     9713.506235,     9701.229627,     9718.586526
LIST@ 756=     9813.261699,     9743.664293,     9809.712197,     9809.886468
LIST@ 760=     9375.783873,     9304.267964,     9142.587284,     9241.555806
LIST@ 764=     9405.447747,     9153.563026,     9257.232257,     9395.846970
LIST@ 768=     9353.736920,     9391.233601,     9462.542216,     9422.955208
LIST@ 772=     9476.266976,     9496.130979,     9497.747689,     9510.169411
LIST@ 776=     9428.387440,     9333.059377,     9450.512467,     9344.234936
LIST@ 780=     9432.159886,     9481.795900,     9415.350558,     9157.070657
LIST@ 784=     9294.202292,     9251.566293,     9245.231912,     9142.476663
LIST@ 788=     9005.820847,     9232.416658,     9274.374476,     9274.237836
LIST@ 792=     9382.637594,     9413.535970,     9617.399192,     9703.542548
LIST@ 796=     9542.769715,     9658.371813,     9531.388455,     9506.573033
LIST@ 800=     9325.074145,     9175.539661,     9252.525426,     9003.580762
LIST@ 804=     9034.036984,     8711.156358,     8449.131091,     8343.872744
LIST@ 808=     8089.684610,     7897.487029,     7866.338465,     7585.977254
LIST@ 812=     7306.833912,     7468.900886,     7403.598919,     7700.659028
LIST@ 816=     8627.312291,    10948.297715,    16393.229468,    21395.358145
LIST@ 820=    21227.580406,    13711.261247,     7933.244145,     6489.243649
LIST@ 824=     6206.392088,     6085.717693,     6166.465834,     6122.272735
LIST@ 828=     6180.671163,     6234.787627,     6376.979210,     6445.714829
LIST@ 832=     6703.981785,     6558.547859,     6195.013710,     6088.177650
LIST@ 836=     5876.229900,     6013.989716,     5961.236464,     6089.445022
LIST@ 840=     6204.009393,     6224.804717,     6055.102862,     6175.265343
LIST@ 844=     5862.677303,     5748.250197,     5559.774504,     5521.036743
LIST@ 848=     5482.736264,     5519.524357,     5345.776149,     5479.829480
LIST@ 852=     5455.435167,     5318.837704,     5463.033262,     5482.805578
LIST@ 856=     5589.853531,     5808.385806,     5665.457276,     5706.250115
LIST@ 860=     5656.245397,     5728.361199,     5546.828376,     5424.720048
LIST@ 864=     5378.616810,     5425.064741,     5533.284892,     5453.212180
LIST@ 868=     5360.444197,     5429.650418,     5224.132762,     5166.379385
LIST@ 872=     5199.098022,     5089.506408,     5138.706641,     5216.237761
LIST@ 876=     5155.704375,     5215.792970,     5136.717656,     5083.719232
LIST@ 880=     5210.914035,     5228.568943,     5176.189145,     5266.044582
LIST@ 884=     5130.282696,     5137.981803,     5177.188525,     5208.611948
LIST@ 888=     5292.407522,     5264.035464,     5216.437822,     5175.544058
LIST@ 892=     5300.300944,     5299.164086,     5383.306548,     5363.917928
LIST@ 896=     5371.228089,     5278.277066,     5363.409147,     5415.495536
LIST@ 900=     5478.166112,     5386.500141,     5577.056935,     5529.898660
LIST@ 904=     5416.241559,     5427.676721,     5474.720212,     5471.754074
LIST@ 908=     5404.069689,     5352.698070,     5280.526188,     5468.861374
LIST@ 912=     5365.470895,     5232.600647,     5401.532790,     5306.296702
LIST@ 916=     5224.669129,     5302.924094,     5386.023882,     5343.253716
LIST@ 920=     5273.718388,     5391.267090,     5477.975337,     5656.802804
LIST@ 924=     6144.766644,     6927.751776,     7859.574531,     7747.691789
LIST@ 928=     6967.797562,     6334.404590,     5936.302778,     5430.870419
LIST@ 932=     5069.559615,     4788.675508,     4666.330882,     4427.822493
LIST@ 936=     4294.236788,     4410.270233,     4305.521307,     4309.883425
LIST@ 940=     4244.557491,     4157.537672,     4165.378444,     4037.000033
LIST@ 944=     4094.990709,     4115.591948,     4180.671206,     4325.268586
LIST@ 948=     4396.084051,     4615.452907,     4881.467401,     5185.753921
LIST@ 952=     5500.982415,     5729.349673,     5547.836663,     5004.583461
LIST@ 956=     4529.904862,     4320.806984,     4171.087707,     3933.345611
LIST@ 960=     3808.828293,     3748.663525,     3776.909973,     3625.937429
LIST@ 964=     3710.035935,     3749.109119,     3697.934050,     3703.644021
LIST@ 968=     3631.975844,     3654.249534,     3757.287091,     3702.003749
LIST@ 972=     3704.831444,     3778.983571,     3798.358841,     3780.410041
LIST@ 976=     3757.270683,     3793.035497,     3701.738811,     3774.775355
LIST@ 980=     3776.722148,     3749.311181,     3854.351632,     3783.741157
LIST@ 984=     3807.093760,     3759.364080,     3728.745036,     3874.681988
LIST@ 988=     3843.261852,     3772.443634,     3766.858520,     3780.770400
LIST@ 992=     3847.947327,     3843.783732,     3846.640906,     3773.417413
LIST@ 996=     3840.125094,     3902.883280,     3890.218694,     3917.211220
LIST@1000=     3974.713963,     3957.268375,     3960.131924,     3906.415321
LIST@1004=     4017.553613,     3921.852767,     3866.349732,     3992.204966
LIST@1008=     3909.890667,     3982.397449,     3984.944598,     4012.920612
LIST@1012=     3947.609697,     4086.758264,     4083.020935,     4100.518343
LIST@1016=     4017.923432,     3995.442857,     4106.363466,     4042.178768
LIST@1020=     4182.149207,     4153.050867,     4075.846153,     4177.956172
LIST@1024=     4078.883634,     4236.348942,     4279.558956,     4162.013252
LIST@1028=     4173.962142,     4129.534729,     4314.811388,     4284.741265
LIST@1032=     4242.205754,     4218.045777,     4308.422173,     4331.989332
LIST@1036=     4264.547162,     4434.268086,     4477.889793,     4437.986515
LIST@1040=     4382.528591,     4447.739367,     4475.611927,     4577.105735
LIST@1044=     4597.699497,     4690.395597,     4670.545554,     4576.168754
LIST@1048=     4406.964554,     4173.112639,     4225.394328,     4020.780549
LIST@1052=     3905.476366,     3671.766739,     3615.223656,     3417.153685
LIST@1056=     3419.295055,     3202.285332,     3188.731438,     3219.855035
LIST@1060=     3521.101419,     4103.997205,     4941.189090,     7082.559242
LIST@1064=    12746.518925,    17340.436335,    10970.644303,     4631.087133
LIST@1068=     3178.000558,     2968.293095,     2869.340455,     2830.798477
LIST@1072=     2847.237348,     2805.495668,     2813.138818,     2716.553760
LIST@1076=     2737.521714,     2764.168795,     2845.492045,     2728.851741
LIST@1080=     2781.585113,     2742.651274,     2774.522024,     2865.349255
LIST@1084=     2859.617299,     2780.695438,     2828.196501,     2818.700554
LIST@1088=     2699.492978,     2824.152072,     2794.697110,     2868.537286
LIST@1092=     2817.321785,     2804.850491,     2840.149392,     2758.687889
LIST@1096=     2820.926140,     2786.087356,     2855.720664,     2839.587185
LIST@1100=     3054.612578,     2843.789449,     2881.970268,     2820.588117
LIST@1104=     2913.050249,     2895.074977,     2890.281045,     2941.295555
LIST@1108=     2976.383749,     2869.248831,     2969.085626,     2889.693396
LIST@1112=     2887.891641,     2916.145336,     2915.290214,     2914.668034
LIST@1116=     2852.046333,     2811.665036,     2981.918928,     2918.758984
LIST@1120=     2959.479668,     2840.841769,     2918.071261,     3081.024817
LIST@1124=     2824.035738,     2818.243004,     2862.065823,     2963.546810
LIST@1128=     2944.694058,     2973.897537,     2987.795875,     3101.042108
LIST@1132=     2985.556840,     3003.951097,     2881.528740,     3002.182292
LIST@1136=     2950.574583,     2978.141036,     2933.525682,     3025.105464
LIST@1140=     3019.730594,     3065.673724,     2942.132951,     3028.569696
LIST@1144=     2980.752652,     3101.684620,     3091.803965,     2958.959594
LIST@1148=     2932.865551,     2930.319603,     3055.530426,     3076.195275
LIST@1152=     3030.989254,     2986.861826,     3058.823746,     3035.280854
LIST@1156=     3066.457412,     3056.705283,     3074.736322,     3114.075123
LIST@1160=     3007.878240,     3001.429809,     3086.710171,     3087.942525
LIST@1164=     3157.963282,     3189.192171,     3146.741159,     3158.543970
LIST@1168=     3172.007889,     3181.190514,     3076.206622,     3110.653380
LIST@1172=     3237.729233,     3199.002793,     3115.367452,     3138.311512
LIST@1176=     3252.253073,     3185.483020,     3156.033051,     3144.687900
LIST@1180=     3148.094088,     3180.272618,     3186.684109,     3065.670099
LIST@1184=     3151.587284,     3210.947281,     3219.189976,     3452.107809
LIST@1188=     3713.787705,     3919.242779,     3729.329822,     3455.507481
LIST@1192=     3233.923067,     3179.954616,     3180.703475,     3241.086744
LIST@1196=     3162.999345,     3116.851422,     3156.204221,     3200.961768
LIST@1200=     3097.955352,     3075.033752,     3172.594478,     3094.234359
LIST@1204=     3123.313610,     3209.848667,     3189.386302,     3294.313501
LIST@1208=     3220.417274,     3151.442886,     3122.795397,     3235.299613
LIST@1212=     3320.943776,     3278.742451,     3174.690394,     3201.500333
LIST@1216=     3316.093898,     3272.847802,     3497.110939,     3226.192519
LIST@1220=     3344.531698,     3437.977825,     3421.769603,     3402.797333
LIST@1224=     3381.758111,     3236.725813,     3291.797850,     3298.055988
LIST@1228=     3175.867165,     3181.978746,     3134.024220,     3180.430563
LIST@1232=     3219.694489,     3076.737720,     3154.681721,     3211.379279
LIST@1236=     3228.436607,     3391.856234,     3329.583681,     3494.192321
LIST@1240=     3836.838702,     4138.089361,     4238.498929,     4444.258358
LIST@1244=     4601.947251,     4713.936731,     4193.714188,     3956.240998
LIST@1248=     3580.327468,     3263.409872,     2970.023976,     2846.191394
LIST@1252=     2732.358298,     2752.638585,     2659.703929,     2612.478795
LIST@1256=     2739.547119,     2785.480706,     2680.996494,     2836.580317
LIST@1260=     2913.039669,     2925.168272,     2841.443144,     2942.034250
LIST@1264=     2890.350002,     3089.418577,     3134.424250,     3240.263593
LIST@1268=     2916.560962,     2702.281831,     2634.329794,     2547.066894
LIST@1272=     2526.126811,     2470.821858,     2424.681590,     2393.717610
LIST@1276=     2429.929470,     2386.588870,     2428.028766,     2389.210796
LIST@1280=     2445.525535,     2442.825481,     2509.944243,     2670.531051
LIST@1284=     2767.703092,     2837.884496,     2974.447621,     3141.885937
LIST@1288=     3352.162500,     3305.234853,     2983.678185,     2314.197891
LIST@1292=     1752.076295,     1540.136644,     1403.711088,     1465.334305
LIST@1296=     1486.139348,     1629.551949,     1975.268774,     2456.925636
LIST@1300=     2833.304750,     3048.507617,     2574.527600,     1607.379838
LIST@1304=     1099.265563,      920.257599,      940.447584,      934.851834
LIST@1308=      930.987034,      890.556562,      805.278338,      804.478130
LIST@1312=      792.870651,      759.215989,      753.153846,      741.022998
LIST@1316=      730.348941,      758.910049,      715.456484,      674.374352
LIST@1320=      663.985889,      706.598403,      726.905122,      769.512933
LIST@1324=      841.744987,      949.774250,     1113.571645,     1300.030640
LIST@1328=     1549.242574,     1838.446256,     2000.290909,     1370.964115
LIST@1332=      767.502990,      552.032651,      501.155705,      454.904627
LIST@1336=      472.145176,      439.569840,      465.904545,      420.320674
LIST@1340=      495.638886,      576.057997,      705.058874,      789.510522
LIST@1344=      813.090223,      876.859033,      830.462583,      763.694523
LIST@1348=      550.031306,      282.180521,       85.630121,       36.074164
LIST@1352=       16.497254,       15.549146,        9.345439,        6.048358
LIST@1356=        7.544225,        8.271556,        4.635734,        3.661487
LIST@1360=        5.003141
