;========================================================================
;Dump of DataSpace 'C:\Users\engineer\Documents\data\user data\amt342\ColinBundschu(crb273)\04-08-2025\Experiment\X-Ray001 400um - FG  ON\GaMn2O4\Ga2p Scan.VGD'
; on 8/4/2025 at 18:47:31
;========================================================================


;[Note that this file can be reloaded only if certain syntax rules are NOT broken]

$FORMAT=4


;Summary Properties present:
$PROPERTIES=SUM
DS_EXT_SUPROPID_TITLE       : VT_BSTR = 'Ga2p Scan'
DS_EXT_SUPROPID_SUBJECT     : VT_BSTR = '04-08-2025'
DS_EXT_SUPROPID_AUTHOR      : VT_BSTR = 'engineer'
DS_EXT_SUPROPID_COMMENTS    : VT_BSTR = ''
DS_EXT_SUPROPID_CREATED     : VT_DATE = 8/4/2025   21:24:42
DS_EXT_SUPROPID_SAVED       : VT_DATE = 8/4/2025   21:33:01

;Standard Properties present:
$PROPERTIES=STD
DS_GEPROPID_TECHNIQUE                       : VT_I4   = 1
DS_GEPROPID_INSTRUMENT                      : VT_BSTR = 'Nexsa_G2'
DS_GEPROPID_SOURCE_TYPE                     : VT_I4   = 1
DS_GEPROPID_GUID                            : VT_BSTR = '{90F5051E-B0CE-4CE3-BD1F-CF949CAE4D24}'
DS_GEPROPID_SOURCE_GUID                     : VT_BSTR = '{90F5051E-B0CE-4CE3-BD1F-CF949CAE4D24}'
DS_GEPROPID_EXPT_RUN_GUID                   : VT_BSTR = '{315F86BB-07DF-4D75-BCC0-21DA24A6008A}'
DS_GEPROPID_VALUE_TYPE                      : VT_I4   = 11
DS_GEPROPID_VALUE_LABEL                     : VT_BSTR = 'Counts'
DS_GEPROPID_VALUE_SYMBOL                    : VT_BSTR = 'C'
DS_GEPROPID_VALUE_UNIT                      : VT_BSTR = ''
DS_DATASTORAGEID_DATA_STORAGE_METHOD        : VT_I4   = 0
DS_SOPROPID_STYPE                           : VT_I4   = 10
DS_SOPROPID_MONO                            : VT_BOOL = True
DS_SOPROPID_ENERGY                          : VT_R4   = 1486.680054
DS_SOPROPID_VOLTAGE                         : VT_R4   = 12000.000000
DS_SOPROPID_CURRENT                         : VT_R4   = 0.010000
DS_SOPROPID_WIDTH                           : VT_R4   = 400.000000
DS_SOPROPID_LENGTH                          : VT_R4   = 400.000000
DS_SOPROPID_GUN                             : VT_I2   = 11
DS_STPROPID_POS_X                           : VT_I4   = 48892500
DS_STPROPID_POS_Y                           : VT_I4   = 19296600
DS_STPROPID_POS_Z                           : VT_I4   = 34235066
DS_STPROPID_POS_TILT                        : VT_I4   = 0
DS_STPROPID_POS_AZIM                        : VT_I4   = 0
DS_ACPROPID_START_TIME                      : VT_DATE = 8/4/2025   21:30:37
DS_ACPROPID_END_TIME                        : VT_DATE = 8/4/2025   21:33:01
DS_ACPROPID_ACQ_TIME                        : VT_R4   = 0.050000
DS_ACPROPID_PERIODS                         : VT_I4   = 5
DS_ACPROPID_MODE                            : VT_I2   = 2
DS_ACPROPID_DIRECTION                       : VT_I2   = 1
DS_ACPROPID_SIG_COMP                        : VT_BOOL = True
DS_ACPROPID_EV_SCALE                        : VT_I2   = 1
DS_SOURCE_FLOODGUNPROPID_CURRENT            : VT_R4   = 150.000000
DS_SOURCE_FLOODGUNPROPID_ENERGY             : VT_R4   = 0.200000
DS_SOURCE_FLOODGUNPROPID_DESCRIPTION        : VT_BSTR = 'Default FG03 mode'
DS_ANPROPID_MODE                            : VT_I2   = 1
DS_ANPROPID_PASS                            : VT_R4   = 50.000000
DS_ANPROPID_WORK_FTN                        : VT_R4   = 4.200000
DS_ANPROPID_LENS_MODE_NAME                  : VT_BSTR = 'Standard'
DS_ANPROPID_TXFN_COEFFS                     : VT_I4   = 4
DS_ANPROPID_TXFN_REMOVED                    : VT_BOOL = True
; Property list for DS_ANPROPID_TXFN_COEFF (expecting 4) follows:
DS_ANPROPID_TXFN_COEFF[0]                        : VT_R4   = 4.730430
DS_ANPROPID_TXFN_COEFF[1]                        : VT_R4   = 0.641629
DS_ANPROPID_TXFN_COEFF[2]                        : VT_R4   = -0.583938
DS_ANPROPID_TXFN_COEFF[3]                        : VT_R4   = 0.061485

;Extended Properties present:
$PROPERTIES=EXT
;   NONE found

;========================================================================

;DataSpace has 1 data axes as follows:
;   #=      start,     end,       numSpaceAxes
$DATAAXES=1,#empty#
    0=        0,      460,          1

;========================================================================

;DataSpace has 1 space axes as follows:
;   #=       start,         width,       numPoints,  axisType,   linear,  symbol,     unit,      label
$SPACEAXES=1
    0=     332.680000,       0.100000,      461,  ENERGY,   LINEAR,  'E',   'eV',    'Energy'

;========================================================================

;Values on axis 0
$DATA=*
LIST@   0=    19921.706041,    20057.286438,    20006.884089,    19980.722182
LIST@   4=    19990.067608,    19836.667562,    19960.575977,    19843.626666
LIST@   8=    19905.927753,    19775.800745,    19881.987578,    19894.444310
LIST@  12=    19755.446344,    19777.604265,    19830.143510,    19656.269377
LIST@  16=    19808.494389,    19834.779049,    19775.485904,    19815.704729
LIST@  20=    19831.253236,    19843.142123,    19659.046167,    19824.280925
LIST@  24=    19887.028956,    19655.305201,    19745.677997,    19536.479047
LIST@  28=    19630.819678,    19802.718768,    19558.662419,    19721.328450
LIST@  32=    19750.583812,    19842.495113,    19746.081749,    19535.974527
LIST@  36=    19779.997966,    19762.070253,    19779.629503,    19678.915174
LIST@  40=    19707.349343,    19687.574923,    19716.687350,    19801.957698
LIST@  44=    19766.656437,    19773.591618,    19681.628649,    19807.966842
LIST@  48=    19656.471553,    19818.862882,    19948.029532,    19946.658974
LIST@  52=    19838.704187,    19805.142061,    20062.177034,    19990.793656
LIST@  56=    19775.614370,    19979.140625,    19924.888649,    19765.681851
LIST@  60=    20008.390176,    20048.995872,    20080.483103,    20167.613780
LIST@  64=    20148.037450,    20364.488142,    20584.575795,    20430.742945
LIST@  68=    20232.674338,    20645.804857,    20775.405781,    20850.878795
LIST@  72=    21169.568441,    21283.735067,    21346.862281,    21540.862116
LIST@  76=    21674.636998,    21936.649280,    22146.167944,    22539.969858
LIST@  80=    22778.610373,    23114.661062,    23511.824435,    23838.474334
LIST@  84=    24403.576390,    24877.427412,    25481.903909,    26122.007559
LIST@  88=    26927.161724,    27514.558777,    28188.528823,    28707.298140
LIST@  92=    29183.848735,    29398.144987,    29864.973443,    30274.674759
LIST@  96=    30226.756844,    29871.129781,    29846.184114,    29250.495681
LIST@ 100=    29038.701334,    28187.840583,    27663.797556,    26852.351836
LIST@ 104=    26195.425813,    25362.251745,    24710.570867,    24139.403224
LIST@ 108=    23531.606280,    22899.379851,    22607.484485,    22024.299521
LIST@ 112=    21638.995052,    21483.088172,    21327.309584,    21167.213876
LIST@ 116=    21024.648873,    21032.233364,    20869.881230,    20657.170059
LIST@ 120=    20533.070694,    20498.695995,    20584.391813,    20638.119061
LIST@ 124=    20456.024022,    20296.254835,    20302.395197,    20374.175918
LIST@ 128=    20352.732376,    20566.746788,    20170.834859,    20267.286048
LIST@ 132=    20495.455174,    20293.661953,    20242.953888,    20296.972769
LIST@ 136=    20299.011899,    20384.941443,    20299.197417,    20275.731320
LIST@ 140=    20449.999547,    20350.828044,    20505.767547,    20312.719476
LIST@ 144=    20390.297382,    20237.375240,    20332.549012,    20255.840786
LIST@ 148=    20503.404403,    20473.034367,    20365.982618,    20323.106085
LIST@ 152=    20417.096922,    20203.243573,    20405.833934,    20470.454892
LIST@ 156=    20575.740934,    20452.066913,    20244.766326,    20406.992407
LIST@ 160=    20374.867366,    20540.553659,    20485.313195,    20443.761557
LIST@ 164=    20374.253565,    20256.749769,    20374.135911,    20276.846331
LIST@ 168=    20241.803745,    20236.936354,    20345.042253,    20209.614759
LIST@ 172=    20407.617206,    20244.951621,    20092.495276,    20328.624741
LIST@ 176=    20304.971918,    20110.093744,    20284.532966,    20263.261030
LIST@ 180=    20332.787114,    20038.558327,    20265.197699,    20179.731698
LIST@ 184=    20094.952942,    20280.476164,    20191.474114,    20221.174623
LIST@ 188=    20347.817902,    20127.642454,    20337.944688,    20108.413067
LIST@ 192=    19975.710657,    20257.064099,    20102.196928,    20412.654449
LIST@ 196=    19931.118528,    19982.303129,    20005.637641,    20178.849822
LIST@ 200=    20066.400301,    20172.504496,    19902.952087,    19972.735994
LIST@ 204=    20100.805419,    20151.715955,    20144.118232,    19880.408091
LIST@ 208=    19898.490766,    19888.027318,    20000.688264,    20117.387209
LIST@ 212=    20022.994033,    20001.739226,    19904.609593,    19810.078464
LIST@ 216=    19934.705172,    19770.992791,    19812.803499,    19931.472352
LIST@ 220=    19859.360385,    19911.356526,    19821.944998,    19788.663283
LIST@ 224=    19703.127799,    19640.298683,    19693.219116,    19684.171331
LIST@ 228=    19790.729918,    19769.408127,    19613.156015,    19728.259359
LIST@ 232=    19505.726255,    19687.787535,    19677.500889,    19638.718111
LIST@ 236=    19445.666105,    19246.685090,    19623.233683,    19521.738670
LIST@ 240=    19482.114958,    19400.443954,    19288.485596,    19300.208172
LIST@ 244=    19330.818215,    19118.597486,    19279.876632,    19150.445307
LIST@ 248=    19268.020263,    19306.700410,    19006.790349,    19223.383890
LIST@ 252=    19274.890080,    19154.373906,    19051.151071,    19035.999710
LIST@ 256=    18829.397512,    19027.888889,    19143.956195,    18973.690380
LIST@ 260=    19243.406006,    19024.105426,    18966.144775,    18775.697653
LIST@ 264=    18897.429788,    18781.438597,    19076.446393,    18862.940549
LIST@ 268=    18894.537787,    18743.230476,    18792.716823,    18790.083310
LIST@ 272=    18721.344967,    18817.796672,    18647.609963,    18535.077696
LIST@ 276=    18783.244156,    18602.992535,    18768.954633,    18705.039055
LIST@ 280=    18502.392590,    18563.342751,    18594.177330,    18437.830118
LIST@ 284=    18565.787733,    18595.483608,    18265.532033,    18433.463289
LIST@ 288=    18507.253656,    18442.716093,    18423.159872,    18467.785228
LIST@ 292=    18286.025615,    18258.216951,    18399.602627,    18525.599544
LIST@ 296=    18353.383623,    18376.170911,    18141.186889,    18255.197676
LIST@ 300=    18410.363471,    18399.143186,    18332.878684,    18189.241096
LIST@ 304=    18442.742603,    18425.835837,    18269.467859,    18282.828538
LIST@ 308=    18239.512617,    18292.718924,    18162.922266,    18363.346865
LIST@ 312=    18249.254553,    18294.392098,    18436.304584,    18370.724371
LIST@ 316=    18486.978359,    18619.442746,    18540.875061,    18384.280256
LIST@ 320=    18446.612440,    18492.913123,    18499.182484,    18570.857402
LIST@ 324=    18571.116121,    18606.777698,    18861.201261,    18760.255967
LIST@ 328=    18888.196350,    18805.312033,    19009.970156,    19062.676803
LIST@ 332=    19253.657372,    19261.460741,    19503.583571,    19478.541943
LIST@ 336=    19731.989648,    19792.075778,    19953.092076,    20282.597830
LIST@ 340=    20477.352733,    20803.752094,    20937.696051,    21394.063703
LIST@ 344=    21769.657313,    22209.955169,    22744.210918,    23241.506263
LIST@ 348=    23729.375820,    24379.072572,    25243.969220,    26012.130858
LIST@ 352=    27122.777468,    27957.260719,    29027.800057,    30203.387323
LIST@ 356=    31486.048219,    32859.703999,    34231.060590,    35221.344676
LIST@ 360=    36278.220968,    37582.827766,    38281.470375,    39047.004718
LIST@ 364=    39144.913898,    39212.472170,    39061.394631,    38357.137299
LIST@ 368=    37693.973384,    36597.095362,    35125.366420,    33888.311643
LIST@ 372=    32176.251893,    30645.610304,    29319.872300,    27649.631427
LIST@ 376=    26265.701001,    25001.671248,    23882.139830,    22959.812405
LIST@ 380=    22401.182279,    21671.718115,    20962.092856,    20562.173642
LIST@ 384=    20142.283367,    19945.754513,    19713.215104,    19457.685605
LIST@ 388=    19205.929433,    19149.339391,    19052.167190,    18902.557719
LIST@ 392=    18645.610409,    18664.603792,    18576.246397,    18502.466312
LIST@ 396=    18387.526036,    18533.499466,    18297.587367,    18306.911834
LIST@ 400=    18499.562080,    18406.384995,    18258.067645,    18175.433692
LIST@ 404=    18237.171255,    18123.319830,    18304.808590,    18112.881375
LIST@ 408=    18162.144693,    18198.052659,    18074.601205,    18090.077589
LIST@ 412=    18056.549072,    18180.711516,    18036.568248,    18157.038507
LIST@ 416=    18157.979663,    18069.991401,    18145.359126,    18032.622012
LIST@ 420=    18088.475067,    18104.959337,    18224.009003,    17965.598722
LIST@ 424=    18105.235676,    17989.981706,    18075.441398,    18050.916802
LIST@ 428=    17962.003200,    18111.807285,    18094.411610,    18101.626187
LIST@ 432=    18139.237639,    18278.814002,    18153.780085,    18037.134901
LIST@ 436=    18127.116641,    18033.154967,    17954.846818,    17964.066878
LIST@ 440=    18209.666327,    18152.462548,    18003.652750,    18002.695540
LIST@ 444=    18096.094508,    18160.831165,    17834.115657,    18084.241782
LIST@ 448=    18029.412719,    17900.193703,    18005.952581,    17907.467930
LIST@ 452=    18108.650051,    18163.397223,    18126.027054,    18039.966975
LIST@ 456=    18037.586974,    17974.182575,    18137.153767,    18072.728940
LIST@ 460=    18251.558316
