;========================================================================
;Dump of DataSpace 'C:\Users\engineer\Documents\data\user data\amt342\ColinBundschu(crb273)\04-08-2025\Experiment\X-Ray001 400um - FG  ON\GaMn2O4\Mn2p Scan.VGD'
; on 8/4/2025 at 18:47:32
;========================================================================


;[Note that this file can be reloaded only if certain syntax rules are NOT broken]

$FORMAT=4


;Summary Properties present:
$PROPERTIES=SUM
DS_EXT_SUPROPID_TITLE       : VT_BSTR = 'Mn2p Scan'
DS_EXT_SUPROPID_SUBJECT     : VT_BSTR = '04-08-2025'
DS_EXT_SUPROPID_AUTHOR      : VT_BSTR = 'engineer'
DS_EXT_SUPROPID_COMMENTS    : VT_BSTR = ''
DS_EXT_SUPROPID_CREATED     : VT_DATE = 8/4/2025   21:24:42
DS_EXT_SUPROPID_SAVED       : VT_DATE = 8/4/2025   21:34:37

;Standard Properties present:
$PROPERTIES=STD
DS_GEPROPID_TECHNIQUE                       : VT_I4   = 1
DS_GEPROPID_INSTRUMENT                      : VT_BSTR = 'Nexsa_G2'
DS_GEPROPID_SOURCE_TYPE                     : VT_I4   = 1
DS_GEPROPID_GUID                            : VT_BSTR = '{78EAAA2C-A679-4D9F-8BA8-2CBEC972783D}'
DS_GEPROPID_SOURCE_GUID                     : VT_BSTR = '{78EAAA2C-A679-4D9F-8BA8-2CBEC972783D}'
DS_GEPROPID_EXPT_RUN_GUID                   : VT_BSTR = '{315F86BB-07DF-4D75-BCC0-21DA24A6008A}'
DS_GEPROPID_VALUE_TYPE                      : VT_I4   = 11
DS_GEPROPID_VALUE_LABEL                     : VT_BSTR = 'Counts'
DS_GEPROPID_VALUE_SYMBOL                    : VT_BSTR = 'C'
DS_GEPROPID_VALUE_UNIT                      : VT_BSTR = ''
DS_DATASTORAGEID_DATA_STORAGE_METHOD        : VT_I4   = 0
DS_SOPROPID_STYPE                           : VT_I4   = 10
DS_SOPROPID_MONO                            : VT_BOOL = True
DS_SOPROPID_ENERGY                          : VT_R4   = 1486.680054
DS_SOPROPID_VOLTAGE                         : VT_R4   = 12000.000000
DS_SOPROPID_CURRENT                         : VT_R4   = 0.010000
DS_SOPROPID_WIDTH                           : VT_R4   = 400.000000
DS_SOPROPID_LENGTH                          : VT_R4   = 400.000000
DS_SOPROPID_GUN                             : VT_I2   = 11
DS_STPROPID_POS_X                           : VT_I4   = 48892500
DS_STPROPID_POS_Y                           : VT_I4   = 19296600
DS_STPROPID_POS_Z                           : VT_I4   = 34235066
DS_STPROPID_POS_TILT                        : VT_I4   = 0
DS_STPROPID_POS_AZIM                        : VT_I4   = 0
DS_ACPROPID_START_TIME                      : VT_DATE = 8/4/2025   21:33:01
DS_ACPROPID_END_TIME                        : VT_DATE = 8/4/2025   21:34:37
DS_ACPROPID_ACQ_TIME                        : VT_R4   = 0.050000
DS_ACPROPID_PERIODS                         : VT_I4   = 5
DS_ACPROPID_MODE                            : VT_I2   = 2
DS_ACPROPID_DIRECTION                       : VT_I2   = 1
DS_ACPROPID_SIG_COMP                        : VT_BOOL = True
DS_ACPROPID_EV_SCALE                        : VT_I2   = 1
DS_SOURCE_FLOODGUNPROPID_CURRENT            : VT_R4   = 150.000000
DS_SOURCE_FLOODGUNPROPID_ENERGY             : VT_R4   = 0.200000
DS_SOURCE_FLOODGUNPROPID_DESCRIPTION        : VT_BSTR = 'Default FG03 mode'
DS_ANPROPID_MODE                            : VT_I2   = 1
DS_ANPROPID_PASS                            : VT_R4   = 50.000000
DS_ANPROPID_WORK_FTN                        : VT_R4   = 4.200000
DS_ANPROPID_LENS_MODE_NAME                  : VT_BSTR = 'Standard'
DS_ANPROPID_TXFN_COEFFS                     : VT_I4   = 4
DS_ANPROPID_TXFN_REMOVED                    : VT_BOOL = True
; Property list for DS_ANPROPID_TXFN_COEFF (expecting 4) follows:
DS_ANPROPID_TXFN_COEFF[0]                        : VT_R4   = 4.730430
DS_ANPROPID_TXFN_COEFF[1]                        : VT_R4   = 0.641629
DS_ANPROPID_TXFN_COEFF[2]                        : VT_R4   = -0.583938
DS_ANPROPID_TXFN_COEFF[3]                        : VT_R4   = 0.061485

;Extended Properties present:
$PROPERTIES=EXT
;   NONE found

;========================================================================

;DataSpace has 1 data axes as follows:
;   #=      start,     end,       numSpaceAxes
$DATAAXES=1,#empty#
    0=        0,      280,          1

;========================================================================

;DataSpace has 1 space axes as follows:
;   #=       start,         width,       numPoints,  axisType,   linear,  symbol,     unit,      label
$SPACEAXES=1
    0=     826.680000,       0.100000,      281,  ENERGY,   LINEAR,  'E',   'eV',    'Energy'

;========================================================================

;Values on axis 0
$DATA=*
LIST@   0=    17795.882582,    17929.391096,    17853.541745,    17802.764941
LIST@   4=    17604.347778,    17746.568318,    17813.996799,    17868.267785
LIST@   8=    17898.949191,    17850.547225,    17966.331912,    17828.045196
LIST@  12=    17786.552633,    17873.601950,    17658.902618,    17855.899663
LIST@  16=    17853.825950,    17648.421244,    17773.317417,    17751.707273
LIST@  20=    17655.513042,    17729.605427,    17706.431890,    17810.006792
LIST@  24=    17961.303303,    17964.206934,    17779.679469,    17857.413792
LIST@  28=    17731.133876,    17863.773609,    17981.027783,    17877.374243
LIST@  32=    17995.112822,    18008.000427,    18183.101849,    17910.038319
LIST@  36=    18110.158517,    18218.675067,    18296.421902,    18412.064776
LIST@  40=    18261.573587,    18260.710941,    18667.561322,    18817.006896
LIST@  44=    18826.189627,    18753.269762,    19009.625397,    19109.329910
LIST@  48=    19190.343425,    19309.141029,    19307.221994,    19574.613484
LIST@  52=    19932.393869,    19930.428149,    20153.640188,    20254.783741
LIST@  56=    20569.891954,    20548.572280,    20716.581649,    20750.791961
LIST@  60=    21068.288630,    21385.432524,    21671.516963,    21385.001458
LIST@  64=    21581.098306,    21898.771591,    21786.453123,    21659.426015
LIST@  68=    21889.880511,    21890.667069,    21710.320613,    21938.376130
LIST@  72=    21707.923908,    21377.270520,    21591.764063,    21196.276231
LIST@  76=    21175.470897,    20833.944209,    20526.953424,    20378.395082
LIST@  80=    20166.421252,    19936.128203,    19664.964812,    19243.892169
LIST@  84=    19150.238847,    18989.476030,    18769.118599,    18477.875936
LIST@  88=    18303.656807,    17972.509650,    17856.007647,    17630.963452
LIST@  92=    17535.552102,    17215.534146,    17041.554529,    16739.055640
LIST@  96=    16446.596817,    16560.227891,    16485.439757,    16414.695420
LIST@ 100=    16234.230519,    16281.313279,    16314.068563,    16222.704165
LIST@ 104=    16088.184559,    15937.603947,    16073.413805,    15957.176080
LIST@ 108=    15933.168187,    15769.145988,    16075.385021,    15727.235696
LIST@ 112=    15877.703620,    15903.335386,    15912.919578,    16064.805358
LIST@ 116=    16069.871927,    15803.623602,    15988.854739,    16063.306595
LIST@ 120=    16195.136312,    16115.532229,    16223.861977,    16241.867846
LIST@ 124=    16371.738431,    16281.248538,    16234.992194,    16323.438859
LIST@ 128=    16579.507425,    16382.586910,    16475.613002,    16527.440117
LIST@ 132=    16639.573463,    16664.436731,    16608.563600,    16570.846508
LIST@ 136=    16517.067031,    16895.860674,    16676.427921,    16884.715586
LIST@ 140=    16756.141937,    16886.549964,    16879.947229,    17059.292055
LIST@ 144=    17281.234993,    17266.655768,    17231.847670,    17220.761986
LIST@ 148=    17258.025147,    17325.643113,    17475.622510,    17694.932684
LIST@ 152=    17901.897048,    17948.701862,    18062.591284,    18393.577723
LIST@ 156=    18364.534500,    18451.223702,    18668.489036,    18702.571780
LIST@ 160=    18948.102462,    19197.302409,    19332.391931,    19662.959835
LIST@ 164=    19765.353388,    20136.515788,    20422.540619,    20658.384021
LIST@ 168=    21053.679616,    21439.583875,    21821.095767,    22109.156219
LIST@ 172=    22652.341088,    22740.485774,    22813.370565,    23293.756919
LIST@ 176=    23727.364758,    24060.365695,    24109.077447,    24435.505037
LIST@ 180=    24570.505330,    24612.537634,    24790.046392,    25062.328820
LIST@ 184=    25312.939636,    25369.371431,    25201.051137,    25459.524678
LIST@ 188=    25208.057712,    25060.847717,    24798.734780,    24994.197959
LIST@ 192=    24437.069187,    23911.776437,    23627.668301,    22823.983568
LIST@ 196=    22364.353233,    21672.077045,    20859.802473,    20171.902142
LIST@ 200=    19618.647383,    18865.488661,    18395.694702,    17769.972037
LIST@ 204=    17416.581501,    16729.493253,    16297.980936,    15409.421975
LIST@ 208=    15177.928754,    14708.461754,    14337.779647,    13823.581507
LIST@ 212=    13636.538471,    13501.877703,    13215.985151,    12964.176339
LIST@ 216=    12985.459685,    13065.816713,    12658.884947,    12840.334932
LIST@ 220=    12744.901099,    12652.558404,    12640.112717,    12539.926130
LIST@ 224=    12627.995653,    12633.925717,    12576.778006,    12646.030985
LIST@ 228=    12622.998701,    12462.947294,    12498.841112,    12523.457275
LIST@ 232=    12367.631941,    12505.983956,    12490.581774,    12477.046144
LIST@ 236=    12501.746783,    12505.274868,    12384.026731,    12500.154526
LIST@ 240=    12422.142441,    12534.415404,    12416.388601,    12582.186404
LIST@ 244=    12758.646972,    12658.777003,    12489.167881,    12447.180293
LIST@ 248=    12444.980280,    12583.145450,    12460.904437,    12577.200743
LIST@ 252=    12388.832877,    12557.791848,    12405.736463,    12506.081056
LIST@ 256=    12481.884199,    12531.270550,    12444.703678,    12450.042253
LIST@ 260=    12656.680502,    12500.629395,    12528.077477,    12378.032776
LIST@ 264=    12450.042465,    12497.449377,    12630.376538,    12741.080537
LIST@ 268=    12648.947247,    12626.260079,    12397.299773,    12626.606214
LIST@ 272=    12526.737976,    12564.926206,    12615.534345,    12518.468957
LIST@ 276=    12435.012399,    12417.514783,    12588.310301,    12454.905073
LIST@ 280=    12448.980651
