;========================================================================
;Dump of DataSpace 'C:\Users\engineer\Documents\data\user data\amt342\ColinBundschu(crb273)\04-08-2025\Experiment\X-Ray001 400um - FG  ON\GaMn2O4\XPS Survey.VGD'
; on 8/4/2025 at 18:47:32
;========================================================================


;[Note that this file can be reloaded only if certain syntax rules are NOT broken]

$FORMAT=4


;Summary Properties present:
$PROPERTIES=SUM
DS_EXT_SUPROPID_TITLE       : VT_BSTR = 'XPS Survey'
DS_EXT_SUPROPID_SUBJECT     : VT_BSTR = '04-08-2025'
DS_EXT_SUPROPID_AUTHOR      : VT_BSTR = 'engineer'
DS_EXT_SUPROPID_COMMENTS    : VT_BSTR = ''
DS_EXT_SUPROPID_CREATED     : VT_DATE = 8/4/2025   21:24:42
DS_EXT_SUPROPID_SAVED       : VT_DATE = 8/4/2025   21:28:08

;Standard Properties present:
$PROPERTIES=STD
DS_GEPROPID_TECHNIQUE                       : VT_I4   = 1
DS_GEPROPID_INSTRUMENT                      : VT_BSTR = 'Nexsa_G2'
DS_GEPROPID_SOURCE_TYPE                     : VT_I4   = 1
DS_GEPROPID_GUID                            : VT_BSTR = '{350690A6-B378-44A1-9CDF-699DB1C90D77}'
DS_GEPROPID_SOURCE_GUID                     : VT_BSTR = '{350690A6-B378-44A1-9CDF-699DB1C90D77}'
DS_GEPROPID_EXPT_RUN_GUID                   : VT_BSTR = '{315F86BB-07DF-4D75-BCC0-21DA24A6008A}'
DS_GEPROPID_VALUE_TYPE                      : VT_I4   = 11
DS_GEPROPID_VALUE_LABEL                     : VT_BSTR = 'Counts'
DS_GEPROPID_VALUE_SYMBOL                    : VT_BSTR = 'C'
DS_GEPROPID_VALUE_UNIT                      : VT_BSTR = ''
DS_DATASTORAGEID_DATA_STORAGE_METHOD        : VT_I4   = 0
DS_SOPROPID_STYPE                           : VT_I4   = 10
DS_SOPROPID_MONO                            : VT_BOOL = True
DS_SOPROPID_ENERGY                          : VT_R4   = 1486.680054
DS_SOPROPID_VOLTAGE                         : VT_R4   = 12000.000000
DS_SOPROPID_CURRENT                         : VT_R4   = 0.010000
DS_SOPROPID_WIDTH                           : VT_R4   = 400.000000
DS_SOPROPID_LENGTH                          : VT_R4   = 400.000000
DS_SOPROPID_GUN                             : VT_I2   = 11
DS_STPROPID_POS_X                           : VT_I4   = 48892500
DS_STPROPID_POS_Y                           : VT_I4   = 19296600
DS_STPROPID_POS_Z                           : VT_I4   = 34235066
DS_STPROPID_POS_TILT                        : VT_I4   = 0
DS_STPROPID_POS_AZIM                        : VT_I4   = 0
DS_ACPROPID_START_TIME                      : VT_DATE = 8/4/2025   21:26:25
DS_ACPROPID_END_TIME                        : VT_DATE = 8/4/2025   21:28:08
DS_ACPROPID_ACQ_TIME                        : VT_R4   = 0.010000
DS_ACPROPID_PERIODS                         : VT_I4   = 4
DS_ACPROPID_MODE                            : VT_I2   = 2
DS_ACPROPID_DIRECTION                       : VT_I2   = 1
DS_ACPROPID_SIG_COMP                        : VT_BOOL = True
DS_ACPROPID_EV_SCALE                        : VT_I2   = 1
DS_SOURCE_FLOODGUNPROPID_CURRENT            : VT_R4   = 150.000000
DS_SOURCE_FLOODGUNPROPID_ENERGY             : VT_R4   = 0.200000
DS_SOURCE_FLOODGUNPROPID_DESCRIPTION        : VT_BSTR = 'Default FG03 mode'
DS_ANPROPID_MODE                            : VT_I2   = 1
DS_ANPROPID_PASS                            : VT_R4   = 200.000000
DS_ANPROPID_WORK_FTN                        : VT_R4   = 4.200000
DS_ANPROPID_LENS_MODE_NAME                  : VT_BSTR = 'Standard'
DS_ANPROPID_TXFN_COEFFS                     : VT_I4   = 4
DS_ANPROPID_TXFN_REMOVED                    : VT_BOOL = True
; Property list for DS_ANPROPID_TXFN_COEFF (expecting 4) follows:
DS_ANPROPID_TXFN_COEFF[0]                        : VT_R4   = 4.730430
DS_ANPROPID_TXFN_COEFF[1]                        : VT_R4   = 0.641629
DS_ANPROPID_TXFN_COEFF[2]                        : VT_R4   = -0.583938
DS_ANPROPID_TXFN_COEFF[3]                        : VT_R4   = 0.061485

;Extended Properties present:
$PROPERTIES=EXT
;   NONE found

;========================================================================

;DataSpace has 1 data axes as follows:
;   #=      start,     end,       numSpaceAxes
$DATAAXES=1,#empty#
    0=        0,     1360,          1

;========================================================================

;DataSpace has 1 space axes as follows:
;   #=       start,         width,       numPoints,  axisType,   linear,  symbol,     unit,      label
$SPACEAXES=1
    0=     136.680000,       1.000000,     1361,  ENERGY,   LINEAR,  'E',   'eV',    'Energy'

;========================================================================

;Values on axis 0
$DATA=*
LIST@   0=    26359.161017,    26621.937159,    26191.312366,    26195.757320
LIST@   4=    25779.655695,    26080.326353,    25714.502121,    25687.250017
LIST@   8=    25350.259328,    25878.277581,    25678.007294,    25808.078516
LIST@  12=    25190.595355,    25317.833722,    24990.913937,    25201.709880
LIST@  16=    25503.582547,    25123.905513,    24897.802923,    24421.504258
LIST@  20=    24701.300959,    24613.167868,    24879.081607,    24744.342554
LIST@  24=    23952.987405,    24611.988676,    24449.107325,    24673.095836
LIST@  28=    24429.882032,    23923.080365,    24212.974537,    24327.741705
LIST@  32=    23939.324168,    24320.975825,    23968.850107,    23963.344073
LIST@  36=    23860.809984,    24128.126148,    24004.158063,    23934.076129
LIST@  40=    23587.535331,    23749.929950,    23871.738828,    23866.090655
LIST@  44=    23779.491634,    23720.180486,    23734.266705,    23722.856226
LIST@  48=    23996.399631,    23770.678226,    23783.132318,    23481.328676
LIST@  52=    23427.311298,    23489.915911,    23465.403697,    23094.178468
LIST@  56=    23237.743199,    22930.930999,    23093.155159,    22992.058898
LIST@  60=    23177.117098,    23257.201300,    23062.263578,    23222.583836
LIST@  64=    23030.196861,    22992.390023,    22498.076346,    23091.200980
LIST@  68=    22942.194553,    22780.666825,    22697.793236,    22760.062005
LIST@  72=    22712.685136,    22607.205809,    22792.916877,    22973.293114
LIST@  76=    22687.338560,    22789.501133,    22980.220443,    22838.278830
LIST@  80=    22958.421748,    22717.505990,    22753.457393,    22758.687522
LIST@  84=    22954.529742,    22887.543216,    22918.287961,    23136.603560
LIST@  88=    23023.132121,    23120.370351,    23294.810981,    23107.226137
LIST@  92=    22887.962683,    23175.829639,    23215.363415,    23249.348108
LIST@  96=    23228.825083,    22983.051471,    23265.041836,    23194.345676
LIST@ 100=    23424.149310,    23411.087388,    23737.413529,    23466.916331
LIST@ 104=    23518.575146,    23434.015750,    23851.203146,    23458.360432
LIST@ 108=    23492.694857,    23715.302435,    23698.061836,    23377.886613
LIST@ 112=    23502.479827,    23406.235862,    23668.458503,    23845.993121
LIST@ 116=    23609.085499,    23696.023427,    23908.083467,    24044.010328
LIST@ 120=    23984.699609,    23905.086528,    24198.644327,    24246.486259
LIST@ 124=    23954.993722,    24105.658472,    24058.805199,    24045.328646
LIST@ 128=    24431.512146,    23783.990281,    23547.346434,    23227.109700
LIST@ 132=    23232.149899,    22948.179475,    22894.661124,    22686.657048
LIST@ 136=    22577.649890,    22346.450581,    22613.841724,    22393.752768
LIST@ 140=    22565.941030,    22190.137294,    22681.364605,    22527.367050
LIST@ 144=    22275.300692,    22562.169892,    22596.804295,    22220.864129
LIST@ 148=    22771.722517,    22625.577640,    22630.077996,    22750.827532
LIST@ 152=    22758.302749,    22388.921412,    22531.378931,    22397.554471
LIST@ 156=    22778.201595,    22677.691132,    22683.544975,    22896.359191
LIST@ 160=    22740.962924,    22643.867754,    23115.184385,    22988.499594
LIST@ 164=    22684.116487,    22682.501881,    23141.372126,    22867.538127
LIST@ 168=    22767.562829,    22806.900681,    22873.693623,    22910.250811
LIST@ 172=    22661.105029,    22879.375125,    22994.538468,    23298.980361
LIST@ 176=    23038.534786,    22969.115787,    23374.142743,    23490.726401
LIST@ 180=    23452.558326,    23409.743804,    23486.960922,    23654.310413
LIST@ 184=    23366.876616,    23672.174532,    23724.666378,    23459.013092
LIST@ 188=    23366.535652,    23404.954264,    23309.450152,    23225.359808
LIST@ 192=    23272.624506,    23006.810059,    23193.660044,    23035.328168
LIST@ 196=    22627.873820,    22386.664953,    22597.184406,    22481.929576
LIST@ 200=    22516.042862,    22989.707283,    23111.324754,    23946.911416
LIST@ 204=    26770.849797,    30348.278801,    30254.177034,    26193.278805
LIST@ 208=    23922.748038,    23253.844066,    23141.189950,    23156.626242
LIST@ 212=    23061.237490,    22970.517078,    22880.496241,    22582.358604
LIST@ 216=    22824.173386,    22661.972589,    22389.971012,    22288.177004
LIST@ 220=    22064.575077,    21886.230971,    21678.914243,    21247.105400
LIST@ 224=    20771.585440,    21217.018405,    20943.648380,    20741.122982
LIST@ 228=    21291.874214,    21765.619539,    24044.472904,    29948.098788
LIST@ 232=    36972.311810,    34670.560800,    25896.125698,    22145.470344
LIST@ 236=    21063.968239,    20814.339530,    20613.593608,    20294.835910
LIST@ 240=    20485.285498,    20493.832856,    20476.626427,    20554.134498
LIST@ 244=    20570.473686,    20163.010153,    20455.564052,    20430.660071
LIST@ 248=    20388.443689,    20385.081867,    20615.060571,    20531.294001
LIST@ 252=    20558.413767,    20623.776226,    20983.939814,    20415.738870
LIST@ 256=    20651.410407,    20742.297803,    20727.310805,    20882.779230
LIST@ 260=    20790.883360,    20831.136384,    20729.698886,    20939.977689
LIST@ 264=    20627.764104,    20601.425269,    21008.602789,    21078.438385
LIST@ 268=    21031.067069,    21052.477986,    21165.868297,    20894.501226
LIST@ 272=    20924.757364,    21278.227584,    21344.664922,    21188.271143
LIST@ 276=    21263.782762,    21328.749899,    21133.206837,    21120.136978
LIST@ 280=    21451.439398,    21561.872107,    21606.490797,    21028.648425
LIST@ 284=    21510.718864,    21472.256707,    21863.321053,    21450.225130
LIST@ 288=    21532.608323,    21564.988824,    21498.295399,    21577.164843
LIST@ 292=    21759.308677,    21826.870553,    21827.200105,    21698.854400
LIST@ 296=    21985.374883,    21906.481256,    22154.948229,    21979.042917
LIST@ 300=    21907.874344,    22150.443288,    22199.359682,    21947.335142
LIST@ 304=    22093.853612,    22347.098149,    22071.737749,    22240.228463
LIST@ 308=    22387.454634,    22252.590022,    22275.212294,    22704.321593
LIST@ 312=    22292.016719,    22408.719211,    22400.753733,    22578.491042
LIST@ 316=    22822.373716,    22696.815794,    22756.582860,    22847.621155
LIST@ 320=    22610.050773,    22519.265823,    22847.862176,    22483.942954
LIST@ 324=    22790.517840,    22609.986036,    23277.384083,    22583.222215
LIST@ 328=    23034.522859,    23411.725001,    23285.531070,    23353.161489
LIST@ 332=    23235.277137,    22985.505424,    23204.854632,    23182.363657
LIST@ 336=    23362.615319,    23132.844984,    23451.037389,    23542.775932
LIST@ 340=    23430.828763,    23487.104349,    23109.602110,    23298.061250
LIST@ 344=    23395.904525,    23029.068080,    23435.065074,    23115.695514
LIST@ 348=    23410.994451,    23428.546333,    23634.673005,    23766.955717
LIST@ 352=    23850.525964,    24033.455993,    24200.489910,    24172.295851
LIST@ 356=    23737.599990,    23739.765928,    23723.008272,    23342.139549
LIST@ 360=    23349.673539,    22824.845462,    23126.590738,    22626.471317
LIST@ 364=    22884.812894,    22803.376163,    22903.045709,    22554.835562
LIST@ 368=    22797.145292,    23146.577710,    23398.651452,    23906.764041
LIST@ 372=    24410.174117,    25254.671569,    25256.497090,    24968.143441
LIST@ 376=    24276.910610,    23601.365718,    23180.938904,    22842.386943
LIST@ 380=    22637.649835,    22601.871518,    22108.071469,    21593.787155
LIST@ 384=    21956.528042,    21495.702822,    21722.262769,    21439.943032
LIST@ 388=    21423.484051,    21272.108163,    21136.086588,    21006.505906
LIST@ 392=    21234.919784,    21260.263815,    21004.237420,    21111.551687
LIST@ 396=    21198.666618,    21138.295402,    21147.184127,    20985.710330
LIST@ 400=    20902.827978,    20958.413325,    20847.949478,    21330.349079
LIST@ 404=    21145.558347,    20818.165889,    20294.870205,    20128.260314
LIST@ 408=    19677.304115,    19511.380677,    19591.071638,    19494.028286
LIST@ 412=    19433.607695,    19461.940138,    19095.601958,    19311.211189
LIST@ 416=    19313.881006,    19531.072049,    19334.039460,    19648.483312
LIST@ 420=    19431.810768,    19562.111022,    19419.154571,    19309.461285
LIST@ 424=    19384.853543,    19341.155354,    19541.359146,    19159.805563
LIST@ 428=    19421.550408,    19452.450648,    19426.299007,    19333.652003
LIST@ 432=    19384.355722,    19296.887424,    19286.609467,    19482.750009
LIST@ 436=    19259.080197,    19538.690293,    19642.041024,    19508.569376
LIST@ 440=    19685.644206,    19630.097904,    19723.931572,    19801.473399
LIST@ 444=    20333.010346,    20317.600302,    20432.774476,    20280.305692
LIST@ 448=    20365.560537,    20121.481967,    20083.419147,    20076.463577
LIST@ 452=    19336.783026,    19351.623450,    19102.774272,    18891.112534
LIST@ 456=    18527.869063,    18691.577966,    18407.734366,    18304.767454
LIST@ 460=    18385.876694,    18525.232466,    18434.246813,    18262.070607
LIST@ 464=    18310.367963,    18243.774341,    18359.000587,    18297.335449
LIST@ 468=    18328.908414,    18371.687976,    18518.311460,    18196.914839
LIST@ 472=    18571.991454,    18414.902680,    18177.645061,    18315.492441
LIST@ 476=    18550.964111,    18451.798963,    18507.054870,    18356.717740
LIST@ 480=    18555.773063,    18564.509448,    18521.170201,    18712.058169
LIST@ 484=    18603.266332,    18276.741762,    18492.199868,    18778.992858
LIST@ 488=    18649.434997,    18960.205611,    18767.091047,    18673.000353
LIST@ 492=    19244.581241,    18869.163340,    19216.504929,    19148.911963
LIST@ 496=    19435.817518,    19383.445316,    19192.094704,    19473.909559
LIST@ 500=    19367.322641,    19347.147391,    19168.923175,    19217.410018
LIST@ 504=    19048.405149,    18799.914153,    18826.703414,    18694.881168
LIST@ 508=    18634.089318,    18653.361763,    18800.065656,    18433.685950
LIST@ 512=    18421.309497,    18743.897056,    18727.528800,    18667.851521
LIST@ 516=    18511.466252,    18618.585461,    18540.625812,    18295.983108
LIST@ 520=    18524.632634,    18795.296254,    18734.213228,    18771.099898
LIST@ 524=    18662.862300,    18905.261341,    18964.316499,    18962.649274
LIST@ 528=    18819.394406,    18938.958189,    19008.504808,    19153.673195
LIST@ 532=    18974.389346,    18860.374405,    19030.840366,    19130.170856
LIST@ 536=    19287.895448,    19203.377696,    19195.441749,    19138.744659
LIST@ 540=    19144.728441,    19347.829704,    19208.594160,    19335.726392
LIST@ 544=    19326.665870,    19292.139207,    19323.078627,    19481.168314
LIST@ 548=    19455.326928,    19538.903033,    19674.165623,    19528.433775
LIST@ 552=    19608.513695,    19543.833380,    19747.723776,    19915.798975
LIST@ 556=    19623.005687,    19732.176010,    19763.606501,    19771.850054
LIST@ 560=    19909.428524,    19613.121880,    19549.916075,    19652.100091
LIST@ 564=    19630.643217,    19744.528335,    19832.460351,    19415.889044
LIST@ 568=    19624.727254,    19904.641326,    20089.702222,    20228.446780
LIST@ 572=    20115.683685,    20201.165588,    20327.764758,    20124.327360
LIST@ 576=    20779.220961,    20548.193442,    20588.465227,    20735.877644
LIST@ 580=    20564.985343,    20872.005832,    20474.942581,    19935.126294
LIST@ 584=    19663.855432,    19552.355053,    19459.452271,    19380.169078
LIST@ 588=    19538.159578,    19336.236496,    19644.628693,    19268.179765
LIST@ 592=    19323.158954,    19434.198366,    19381.880983,    19462.225230
LIST@ 596=    19464.967735,    19355.121810,    19432.280904,    19455.211071
LIST@ 600=    19513.179722,    19521.706921,    19453.888120,    19483.962614
LIST@ 604=    19489.111536,    19706.554560,    19717.166217,    19543.412067
LIST@ 608=    19658.064935,    19721.166045,    19575.421647,    19517.330219
LIST@ 612=    19688.425625,    19716.512820,    19924.260903,    19766.948144
LIST@ 616=    20122.669201,    20009.621824,    19972.490563,    20218.320132
LIST@ 620=    20171.492472,    19908.830958,    20158.414663,    20018.772484
LIST@ 624=    20386.261241,    20079.243240,    20115.586762,    20495.108120
LIST@ 628=    20415.162192,    20381.113314,    20294.780774,    20342.353176
LIST@ 632=    20275.692704,    20570.443403,    20998.105949,    20406.613773
LIST@ 636=    20736.895053,    20609.062872,    20626.483498,    20698.941927
LIST@ 640=    20721.955731,    21009.612565,    20677.678636,    20376.186370
LIST@ 644=    20908.185212,    20854.159283,    21058.836901,    20781.435011
LIST@ 648=    20901.063008,    20909.627982,    21049.697920,    21051.141673
LIST@ 652=    21144.461777,    20980.384817,    20995.921399,    21184.027082
LIST@ 656=    21005.061663,    21150.124834,    21304.749984,    21285.659386
LIST@ 660=    21410.025407,    21186.439696,    21274.510013,    21663.503768
LIST@ 664=    21432.137134,    21388.544750,    21480.766808,    21564.154517
LIST@ 668=    21598.539590,    21673.918529,    21938.955489,    21838.369291
LIST@ 672=    21784.694803,    21753.378060,    22069.636490,    21918.199484
LIST@ 676=    21943.101319,    21653.045559,    21842.890652,    21981.835195
LIST@ 680=    21544.458839,    21823.376803,    21762.039521,    21816.257315
LIST@ 684=    22015.619681,    21834.299607,    21922.936757,    21885.416922
LIST@ 688=    21702.473053,    21718.587411,    21866.755480,    21703.493515
LIST@ 692=    21510.427488,    21850.380153,    22595.643100,    23969.208092
LIST@ 696=    25204.974029,    25052.642439,    23341.378758,    21067.048815
LIST@ 700=    19804.466021,    19770.974211,    19849.025369,    20152.701236
LIST@ 704=    20960.837369,    22248.880225,    23952.733923,    26940.797019
LIST@ 708=    28728.039045,    26680.877735,    21318.228747,    17383.413538
LIST@ 712=    15834.263347,    15567.483343,    15591.448519,    15535.483575
LIST@ 716=    15770.744176,    15502.321221,    15482.803960,    15330.874811
LIST@ 720=    15669.274088,    15382.338137,    15226.479218,    15506.911794
LIST@ 724=    15526.712009,    15662.112522,    15802.325575,    15686.355656
LIST@ 728=    15722.095053,    15744.970198,    15947.353938,    15826.711280
LIST@ 732=    15816.563723,    15781.570281,    16002.587007,    15618.142232
LIST@ 736=    15439.010634,    15790.381850,    15737.517679,    15844.857306
LIST@ 740=    15906.622881,    15982.378277,    16092.965391,    16146.618748
LIST@ 744=    16018.621651,    16187.903348,    16187.632868,    16245.168368
LIST@ 748=    16460.731706,    16502.942265,    16436.421661,    16277.491919
LIST@ 752=    16297.105037,    16452.670804,    16734.347897,    16587.121478
LIST@ 756=    16667.270681,    16151.359243,    16122.710787,    15778.311156
LIST@ 760=    15697.937866,    15627.617695,    15493.767247,    15171.370010
LIST@ 764=    15033.727645,    14981.620467,    15271.972212,    15224.225656
LIST@ 768=    15142.823526,    15219.348429,    15251.510065,    15458.108017
LIST@ 772=    15174.660677,    15525.099481,    15605.936629,    15636.753383
LIST@ 776=    15467.996322,    15343.365325,    15387.022414,    15205.559552
LIST@ 780=    15409.065224,    15337.505966,    15451.199415,    15117.037515
LIST@ 784=    15052.793336,    14992.043380,    14920.704356,    14665.826343
LIST@ 788=    14745.891351,    14726.223421,    14726.241893,    15093.069306
LIST@ 792=    15022.281262,    14958.483541,    15155.741761,    15539.946534
LIST@ 796=    15473.315169,    15403.588890,    15381.287016,    15536.946971
LIST@ 800=    15115.384740,    15238.423791,    15099.929822,    14877.580616
LIST@ 804=    14413.892884,    14363.782257,    14051.012646,    14074.597712
LIST@ 808=    13764.116049,    13477.877089,    13377.223632,    13109.283259
LIST@ 812=    12991.855179,    12844.608045,    12879.431547,    13275.700468
LIST@ 816=    14388.575310,    18031.144235,    25044.166779,    31658.752579
LIST@ 820=    29081.288312,    18370.637922,    13010.084151,    11841.764088
LIST@ 824=    11779.140879,    11551.690332,    11677.828626,    11727.209402
LIST@ 828=    12029.226150,    12582.233041,    13146.229704,    13356.288249
LIST@ 832=    13207.765657,    12599.616208,    11955.084214,    11497.607581
LIST@ 836=    11319.160030,    11168.940272,    11418.794281,    11861.296581
LIST@ 840=    12097.930112,    12090.004638,    11972.428545,    11699.820755
LIST@ 844=    11011.861598,    10779.915898,    10515.946583,    10022.338987
LIST@ 848=     9934.416490,     9942.546984,     9662.942583,     9627.376814
LIST@ 852=     9832.069290,     9699.559583,     9925.024474,    10029.643008
LIST@ 856=    10304.010089,    10978.673570,    10858.425164,    10737.601010
LIST@ 860=    10375.691597,    10127.139736,     9803.523182,     9620.812945
LIST@ 864=     9804.521147,     9688.315060,     9926.727896,     9791.223639
LIST@ 868=     9703.991817,     9614.894769,     9223.463112,     9278.841962
LIST@ 872=     9224.160454,     8934.691162,     8994.673515,     8889.877281
LIST@ 876=     8953.214104,     8968.733967,     8982.384767,     9034.610191
LIST@ 880=     8902.539989,     9082.539958,     8843.846598,     9037.787389
LIST@ 884=     9145.467923,     9133.385940,     9160.434611,     9108.225959
LIST@ 888=     9184.177738,     9263.192687,     9344.908252,     9318.215064
LIST@ 892=     9448.148780,     9374.546530,     9293.058932,     9260.440358
LIST@ 896=     9447.640164,     9500.766798,     9357.596160,     9613.315873
LIST@ 900=     9845.771274,     9600.019077,     9845.013350,     9835.735779
LIST@ 904=     9906.813743,     9921.686403,     9871.800417,     9921.717156
LIST@ 908=     9854.130310,     9795.909752,     9691.292090,     9636.171461
LIST@ 912=     9370.659161,     9552.276705,     9473.355444,     9375.984938
LIST@ 916=     9321.358958,     9228.738669,     9169.004835,     9290.609977
LIST@ 920=     9323.241481,     9566.992128,    10021.219810,    10816.813052
LIST@ 924=    13046.323801,    16053.969585,    17040.872293,    15118.174840
LIST@ 928=    13048.539785,    11784.545623,    10657.617850,     9263.658637
LIST@ 932=     7963.691907,     7403.225033,     7156.755095,     6858.413517
LIST@ 936=     6691.040968,     6707.787983,     6526.399544,     6320.666072
LIST@ 940=     6280.110835,     6192.979261,     6079.112691,     6125.152017
LIST@ 944=     6082.005194,     6052.260576,     6175.598137,     6324.369953
LIST@ 948=     6627.821904,     6933.588387,     7827.313296,     8844.786193
LIST@ 952=    10015.233700,    10468.624244,     9000.323615,     7645.487658
LIST@ 956=     6808.781638,     6069.907557,     5691.437597,     5231.584505
LIST@ 960=     5044.982434,     4830.765204,     4885.357551,     4801.819787
LIST@ 964=     4729.554200,     4821.836630,     4588.950565,     4645.182125
LIST@ 968=     4570.314436,     4718.562791,     4766.793861,     4796.122350
LIST@ 972=     4615.983873,     4721.172414,     4675.413379,     4755.475876
LIST@ 976=     4872.296503,     4684.317485,     4711.249634,     4774.327768
LIST@ 980=     4766.804183,     4821.170410,     4642.614129,     4633.386219
LIST@ 984=     4670.201983,     4702.359360,     4695.687391,     4707.793409
LIST@ 988=     4759.134281,     4590.771993,     4722.992748,     4644.526480
LIST@ 992=     4590.959240,     4801.391287,     4805.916426,     4747.169718
LIST@ 996=     4753.934193,     4829.882627,     4746.137041,     4803.180601
LIST@1000=     4845.391237,     4799.862558,     4764.777369,     4694.991054
LIST@1004=     4798.453615,     4790.352483,     4777.650329,     4934.306257
LIST@1008=     4853.800077,     4969.932892,     4844.007412,     5028.700291
LIST@1012=     4933.561520,     5009.273343,     4947.673768,     4980.657144
LIST@1016=     4958.091876,     4976.028384,     4994.911685,     5067.186380
LIST@1020=     5001.360675,     5087.363682,     5022.972928,     5081.886372
LIST@1024=     5219.552374,     5115.814565,     5150.822864,     5192.675859
LIST@1028=     5089.916982,     5096.107287,     5221.370134,     5206.099837
LIST@1032=     5276.842001,     5284.640834,     5291.874081,     5388.674504
LIST@1036=     5301.323411,     5324.864085,     5314.631591,     5373.813665
LIST@1040=     5587.384559,     5361.727817,     5530.562648,     5457.503312
LIST@1044=     5630.018936,     5593.236714,     5563.443353,     5476.910853
LIST@1048=     5399.097786,     5300.477154,     5044.519963,     4703.955059
LIST@1052=     4701.217751,     4490.215732,     4369.229265,     4108.441054
LIST@1056=     3953.204638,     3943.254566,     3802.089807,     3903.415165
LIST@1060=     4053.036232,     4913.485580,     5937.328665,     8495.847189
LIST@1064=    16215.105632,    21220.585063,    12586.210230,     5256.074893
LIST@1068=     3779.887657,     3682.027978,     3485.722413,     3455.408039
LIST@1072=     3567.030084,     3379.317337,     3413.660843,     3387.632479
LIST@1076=     3404.246679,     3399.305741,     3282.213723,     3491.671573
LIST@1080=     3428.123325,     3491.716487,     3448.780805,     3428.988010
LIST@1084=     3393.887703,     3353.594884,     3333.829378,     3366.828729
LIST@1088=     3532.270600,     3476.090067,     3409.098610,     3515.895884
LIST@1092=     3346.706796,     3599.148327,     3476.159632,     3498.977932
LIST@1096=     3520.607157,     3385.151848,     3566.148299,     3446.575262
LIST@1100=     3344.415167,     3464.039734,     3431.682013,     3492.488300
LIST@1104=     3467.588999,     3446.970457,     3542.961061,     3659.215561
LIST@1108=     3572.031097,     3583.421647,     3541.181980,     3523.877985
LIST@1112=     3674.601989,     3527.061938,     3505.357304,     3626.940385
LIST@1116=     3518.169490,     3555.465823,     3595.404809,     3561.797600
LIST@1120=     3574.464564,     3605.602992,     3473.010314,     3556.502969
LIST@1124=     3525.411529,     3536.330375,     3526.838641,     3554.038319
LIST@1128=     3665.952326,     3571.765144,     3596.250042,     3607.688309
LIST@1132=     3602.957039,     3583.521706,     3643.121353,     3700.130260
LIST@1136=     3591.499172,     3642.619583,     3715.258340,     3595.916728
LIST@1140=     3754.939048,     3679.780101,     3677.832617,     3664.672062
LIST@1144=     3668.337833,     3717.247711,     3840.139610,     3755.610487
LIST@1148=     3709.347030,     3725.058215,     3700.557412,     3714.047171
LIST@1152=     3723.374548,     3722.205247,     3747.235138,     3767.004716
LIST@1156=     3753.564023,     3792.331864,     3645.334723,     3864.038799
LIST@1160=     3849.793148,     3882.819574,     3927.788799,     3859.303803
LIST@1164=     3828.523869,     3863.925251,     3824.952337,     3924.264419
LIST@1168=     3940.190281,     3903.449110,     3902.470889,     3964.314724
LIST@1172=     4022.669369,     3861.933104,     3847.587354,     3865.151013
LIST@1176=     3736.628796,     3802.298771,     3777.485666,     3779.625609
LIST@1180=     3745.770304,     3817.465251,     3795.411452,     3707.288010
LIST@1184=     3806.310637,     3871.676252,     4109.936901,     4680.673580
LIST@1188=     5343.305088,     5805.327838,     5538.158855,     4748.668587
LIST@1192=     4125.401552,     3806.334580,     3715.410458,     3822.104461
LIST@1196=     3736.022959,     3632.419836,     3774.535342,     3645.176480
LIST@1200=     3789.019810,     3688.541133,     3671.906628,     3728.215722
LIST@1204=     3686.201783,     3687.058157,     3857.232893,     3683.733005
LIST@1208=     3714.287903,     3694.260504,     3731.769461,     3691.443911
LIST@1212=     3809.275146,     3761.352539,     3822.677663,     3768.573496
LIST@1216=     3841.834586,     3939.545470,     3952.253143,     3970.517969
LIST@1220=     4011.900872,     4059.258210,     3929.823907,     3896.046847
LIST@1224=     3889.294490,     3975.458518,     3966.081080,     3831.694567
LIST@1228=     3826.269472,     3735.352519,     3688.516107,     3600.374931
LIST@1232=     3588.520748,     3529.748000,     3529.191660,     3460.225471
LIST@1236=     3430.307895,     3682.229072,     4036.163222,     4584.920840
LIST@1240=     5318.081266,     5875.998690,     6084.505551,     6595.882839
LIST@1244=     7302.387047,     6743.641794,     5470.408460,     4119.385026
LIST@1248=     3509.687218,     3202.158559,     3013.724976,     2942.892250
LIST@1252=     2775.194083,     2710.239935,     2652.728561,     2669.485098
LIST@1256=     2633.905011,     2705.833650,     2821.370461,     2962.306616
LIST@1260=     3101.981179,     3053.805676,     2915.167026,     2918.297017
LIST@1264=     2901.717647,     3254.249562,     3555.316477,     3274.699953
LIST@1268=     2884.502289,     2558.822924,     2411.442047,     2384.654735
LIST@1272=     2308.111280,     2256.642775,     2310.938778,     2406.924340
LIST@1276=     2348.723252,     2447.852238,     2345.504979,     2510.672633
LIST@1280=     2492.759214,     2552.108640,     2503.557117,     2506.899992
LIST@1284=     2582.829369,     2500.345092,     2284.779887,     2225.913791
LIST@1288=     2165.176175,     2147.714039,     2132.684364,     2001.829518
LIST@1292=     1912.951591,     1875.573979,     1781.064659,     1806.425078
LIST@1296=     1869.284659,     2237.552767,     2843.528459,     3474.416023
LIST@1300=     4294.045205,     4836.260166,     3866.694900,     2236.990257
LIST@1304=     1469.374885,     1342.712616,     1224.735059,     1215.589682
LIST@1308=     1221.084892,     1259.461950,     1199.686067,     1174.004533
LIST@1312=     1151.939452,     1118.407050,     1040.028344,     1015.630014
LIST@1316=      976.069599,      926.758448,      853.489812,      870.749545
LIST@1320=      792.278484,      851.177808,      839.714318,      891.150280
LIST@1324=      981.125606,     1184.663876,     1497.243345,     1782.741060
LIST@1328=     2497.469401,     3874.534748,     4438.883784,     2745.148066
LIST@1332=     1094.634232,      605.656454,      468.449767,      491.140300
LIST@1336=      423.915829,      387.655454,      355.223024,      428.132842
LIST@1340=      516.783401,      583.031089,      660.788357,      754.830450
LIST@1344=      862.142097,      834.821352,      665.001221,      464.151535
LIST@1348=      236.571608,       89.012647,       13.589941,       13.797685
LIST@1352=       13.313325,        7.428354,       11.359375,        4.670866
LIST@1356=        6.326094,        5.103895,        6.754570,        3.253223
LIST@1360=        7.179002
