'Id: "" Comment: "" Operator: "Lab Manager" Anode: "Cu" Scantype: "Coupled TwoTheta/Theta" TimePerStep: "224" 
25 -0.146371395631741
25.0309034269303 -0.142857142857143
25.0618068538606 -0.12584857536506
25.0927102807909 0.0295609407713009
25.1236137077212 -0.109664308733773
25.1545171346515 0.0993328189768601
25.1854205615819 -0.0220191046682281
25.2163239885122 0.209315634616677
25.2472274154425 -0.0593415345969968
25.2781308423728 0.0380808162621804
25.3090342693031 0.184618401479921
25.3399376962334 0.33562836391337
25.3708411231637 -0.120496439294617
25.401744550094 0.0260654204273898
25.4326479770243 0.119063943079389
25.4635514039546 0.087070557232809
25.4944548308849 0.331870977173367
25.5253582578152 -0.0661776542417982
25.5562616847456 0.19203180584446
25.5871651116759 0.151142214574995
25.6180685386062 0.0477607148069525
25.6489719655365 -0.00650555060252511
25.6798753924668 -0.038442295939153
25.7107788193971 0.130521907368498
25.7416822463274 0.205744202177571
25.7725856732577 0.191688874202351
25.803489100188 -0.18396550512859
25.8343925271183 0.0475310641847484
25.8652959540486 -0.207571417857636
25.8961993809789 -0.0536260904210781
25.9271028079093 0.265505899945473
25.9580062348396 0.138217410384874
25.9889096617699 0.0198655837542683
26.0198130887002 0.330093277196513
26.0507165156305 0.184971919283036
26.0816199425608 0.0577157957281242
26.1125233694911 0.350110620817491
26.1434267964214 0.106799251693993
26.1743302233517 0.251888831214774
26.205233650282 0.0487722165226909
26.2361370772123 0.412627979046317
26.2670405041426 0.245241833071362
26.297943931073 -0.0158862214021704
26.3288473580033 0.00870810134000433
26.3597507849336 -0.0291894844163982
26.3906542118639 0.0623853070429057
26.4215576387942 -0.113888952853512
26.4524610657245 -0.0356908355342211
26.4833644926548 0.109479659000776
26.5142679195851 -0.0176631835342329
26.5451713465154 0.0516306368607511
26.5760747734457 0.0450396916142992
26.606978200376 0.0563139807264115
26.6378816273063 0.223846361339946
26.6687850542367 0.0342439763120446
26.699688481167 -0.0214217457858634
26.7305919080973 0.163992052189078
26.7614953350276 0.121735370236871
26.7923987619579 0.173236779786085
26.8233021888882 0.0149248522652918
26.8542056158185 -0.031771840896937
26.8851090427488 0.314396700299399
26.9160124696791 -0.000140952717129217
26.9469158966094 0.189793771482051
26.9778193235397 0.174379444325508
27.00872275047 0.0518303515275305
27.0396261774004 0.15250363594526
27.0705296043307 0.36032786900727
27.101433031261 0.103874479284986
27.1323364581913 0.231357752492694
27.1632398851216 -0.0831151685124611
27.1941433120519 0.191705716269521
27.2250467389822 -0.162929593161362
27.2559501659125 0.0449431889091754
27.2868535928428 0.364431205338279
27.3177570197731 0.411605884697375
27.3486604467034 0.204324369843607
27.3795638736337 0.197943803634116
27.4104673005641 0.303178471783192
27.4413707274944 0.0289569457194032
27.4722741544247 0.0583149397284641
27.503177581355 -0.0864261176181937
27.5340810082853 0.0858052022508522
27.5649844352156 0.351794613621322
27.5958878621459 0.332077830778927
27.6267912890762 0.0579048537236666
27.6576947160065 0.306061396741258
27.6885981429368 0.2952974598317
27.7195015698671 -0.17081552843358
27.7504049967974 -0.141384710911724
27.7813084237278 -0.116586958133018
27.8122118506581 -0.0426739709957475
27.8431152775884 0.120532821928657
27.8740187045187 0.1230334206402
27.904922131449 0.0541135394245913
27.9358255583793 0.11466603542469
27.9667289853096 0.255583765783354
27.9976324122399 0.231331016214869
28.0285358391702 0.224943501004947
28.0594392661005 0.209635505867875
28.0903426930308 0.265764173660798
28.1212461199611 0.205829504383713
28.1521495468915 0.150367212322334
28.1830529738218 0.242234440333807
28.2139564007521 0.244824045560987
28.2448598276824 0.283136028003875
28.2757632546127 0.026813244805326
28.306666681543 0.359784267393914
28.3375701084733 0.313299095769637
28.3684735354036 0.0480720156467829
28.3993769623339 0.211424455596777
28.4302803892642 0.245320701333909
28.4611838161945 0.328332181429605
28.4920872431248 0.197066038741008
28.5229906700552 0.0836651304109752
28.5538940969855 0.162236599296651
28.5847975239158 0.285459016826604
28.6157009508461 0.297082383000836
28.6466043777764 0.607820983533633
28.6775078047067 0.668567675567852
28.708411231637 0.291822459103492
28.7393146585673 0.41954961985484
28.7702180854976 0.475856300679038
28.8011215124279 0.416099644433228
28.8320249393582 0.37867250826027
28.8629283662885 0.622503463588733
28.8938317932189 0.602949653275759
28.9247352201492 0.395903934464209
28.9556386470795 0.470116307154079
28.9865420740098 0.673801057059657
29.0174455009401 0.34177961275237
29.0483489278704 0.835659117089363
29.0792523548007 0.798296712927778
29.110155781731 0.653799543124756
29.1410592086613 0.562881893394584
29.1719626355916 0.458579478022978
29.2028660625219 1.13107086843851
29.2337694894522 0.892856064641173
29.2646729163826 0.913577923773831
29.2955763433129 0.920915017265053
29.3264797702432 0.794331630829126
29.3573831971735 0.685613478751764
29.3882866241038 0.692974846747252
29.4191900510341 0.669094306244161
29.4500934779644 1.17647185724249
29.4809969048947 0.84457178545653
29.511900331825 1.03053694802913
29.5428037587553 0.747760202103158
29.5737071856856 1.02302726196432
29.6046106126159 0.668838127612615
29.6355140395463 0.912871370476617
29.6664174664766 0.973876990556328
29.6973208934069 1.04828355928032
29.7282243203372 1.21198393379144
29.7591277472675 0.933728114089705
29.7900311741978 0.959051814460817
29.8209346011281 0.868312177761922
29.8518380280584 0.594544918278735
29.8827414549887 1.11989289315411
29.913644881919 0.828284673816624
29.9445483088493 0.875970260266272
29.9754517357796 0.959378223931628
30.00635516271 1.06065142195555
30.0372585896403 0.880682711480891
30.0681620165706 0.955186378221939
30.0990654435009 0.998448136464411
30.1299688704312 0.827432271922589
30.1608722973615 0.861781641739332
30.1917757242918 0.824710531628925
30.2226791512221 0.75639751301994
30.2535825781524 0.661306871626661
30.2844860050827 0.691224321734805
30.315389432013 0.716685577630086
30.3462928589433 0.670726353598216
30.3771962858737 0.772096649639195
30.408099712804 0.694903608610169
30.4390031397343 0.358790087653992
30.4699065666646 0.906613229627807
30.5008099935949 0.990158748817331
30.5317134205252 0.399605216651134
30.5626168474555 0.652809775986357
30.5935202743858 0.602450998251576
30.6244237013161 0.686028883446785
30.6553271282464 0.269614860143417
30.6862305551767 0.772851785484328
30.717133982107 0.874311088040947
30.7480374090374 0.538278482098986
30.7789408359677 0.492432539087019
30.809844262898 0.665344687576472
30.8407476898283 0.793622070424491
30.8716511167586 0.636193259059646
30.9025545436889 0.581451110624794
30.9334579706192 0.620467053691364
30.9643613975495 0.909491088259355
30.9952648244798 0.832451785757339
31.0261682514101 0.487563431899602
31.0570716783404 0.785540312400429
31.0879751052707 0.579060998688393
31.1188785322011 0.430625490763491
31.1497819591314 0.563448074340012
31.1806853860617 0.383778749417956
31.211588812992 0.507688944568748
31.2424922399223 0.278928659792391
31.2733956668526 0.675176466517455
31.3042990937829 0.441968079029656
31.3352025207132 0.463232068757564
31.3661059476435 0.377361292844036
31.3970093745738 0.367391465574787
31.4279128015041 0.602965444092674
31.4588162284344 0.338547514111982
31.4897196553648 0.377709104204142
31.5206230822951 0.425807357226294
31.5515265092254 0.598913701749867
31.5824299361557 0.00863528063200558
31.613333363086 0.0389006653012789
31.6442367900163 0.408459855757689
31.6751402169466 0.371777137715521
31.7060436438769 0.419923939746202
31.7369470708072 0.691293118992592
31.7678504977375 0.150170389740403
31.7987539246678 0.126912894846778
31.8296573515981 0.0634849200260037
31.8605607785285 0.508993608135222
31.8914642054588 0.19558181631729
31.9223676323891 0.484856687429353
31.9532710593194 0.220568221471407
31.9841744862497 0.0857521327291693
32.01507791318 0.406301278345496
32.0459813401103 0.258108515463244
32.0768847670406 0.480459558368129
32.1077881939709 0.14478297848872
32.1386916209012 0.340364490110733
32.1695950478315 0.460061236091311
32.2004984747618 0.316373216430453
32.2314019016922 0.462871859699589
32.2623053286225 0.404021451613002
32.2932087555528 0.278214849313552
32.3241121824831 0.205987767086953
32.3550156094134 0.673947347790346
32.3859190363437 0.137450734280876
32.416822463274 0.413462212272826
32.4477258902043 0.368053210337627
32.4786293171346 0.443188014189564
32.5095327440649 0.741545195257209
32.5404361709952 0.414910467826275
32.5713395979255 0.530248117611048
32.6022430248559 0.627736716040101
32.6331464517862 0.801126263113431
32.6640498787165 0.385238187402469
32.6949533056468 0.732751060335786
32.7258567325771 0.557950596199096
32.7567601595074 0.68226536642097
32.7876635864377 0.471766799572838
32.818567013368 0.703240609940412
32.8494704402983 0.769543940380838
32.8803738672286 0.934069648036971
32.9112772941589 0.799496304337382
32.9421807210892 0.651538194996358
32.9730841480196 0.860731034299612
33.0039875749499 0.761896250818574
33.0348910018802 1.03360527312467
33.0657944288105 0.858893815503619
33.0966978557408 0.849369020812561
33.1276012826711 0.978245174765781
33.1585047096014 0.81695084879185
33.1894081365317 1.28512890003363
33.220311563462 0.92742218563397
33.2512149903923 1.07418784845002
33.2821184173226 0.997747317053205
33.3130218442529 0.729350591443525
33.3439252711833 1.43864052876384
33.3748286981136 1.16133141472843
33.4057321250439 1.15188753505159
33.4366355519742 1.08888031830474
33.4675389789045 1.26248833591646
33.4984424058348 1.17717587360102
33.5293458327651 1.26151435992987
33.5602492596954 1.16282522347442
33.5911526866257 1.1221798928061
33.622056113556 1.03689979649635
33.6529595404863 1.36234207740231
33.6838629674166 1.35743530695255
33.714766394347 1.47307234228993
33.7456698212773 1.33425318341443
33.7765732482076 1.37847783032608
33.8074766751379 1.55217485445343
33.8383801020682 1.63659425579649
33.8692835289985 1.22102174864098
33.9001869559288 1.18938590441545
33.9310903828591 1.38990100883421
33.9619938097894 1.42078134761152
33.9928972367197 1.09899120646169
34.02380066365 1.45578058538471
34.0547040905803 1.32597091295201
34.0856075175107 1.41045504630644
34.116510944441 1.57976869973373
34.1474143713713 1.53034044466243
34.1783177983016 1.05681313823541
34.2092212252319 1.27972249473839
34.2401246521622 1.19460422845708
34.2710280790925 1.31485119653433
34.3019315060228 1.22974911325585
34.3328349329531 1.46608369290737
34.3637383598834 1.55510493548889
34.3946417868137 1.26466998385754
34.425545213744 1.29120740944189
34.4564486406744 1.5588243550991
34.4873520676047 1.25948510654345
34.518255494535 1.37979680663207
34.5491589214653 1.11618802679354
34.5800623483956 1.34812305274215
34.6109657753259 1.42828045590646
34.6418692022562 1.34326737914363
34.6727726291865 1.44129810816793
34.7036760561168 1.54826550012223
34.7345794830471 1.75345526929223
34.7654829099774 1.93633170139222
34.7963863369077 1.45850193927935
34.8272897638381 1.53425169723933
34.8581931907684 1.52072383241502
34.8890966176987 1.75273977337785
34.920000044629 1.54726380584209
34.9509034715593 1.79268878695062
34.9818068984896 1.66758614527485
35.0127103254199 1.68981302367193
35.0436137523502 2.04686942214187
35.0745171792805 2.01554105497036
35.1054206062108 1.84582792215742
35.1363240331411 1.86808716656019
35.1672274600714 2.08678307389296
35.1981308870018 2.44834421558428
35.2290343139321 2.07777059163417
35.2599377408624 2.0464907734712
35.2908411677927 2.10450476109536
35.321744594723 1.79645541164952
35.3526480216533 2.53752129656224
35.3835514485836 2.00180955869067
35.4144548755139 2.23396305517766
35.4453583024442 2.13130321459465
35.4762617293745 2.72508003694162
35.5071651563048 2.55100780793288
35.5380685832351 3.0823008132827
35.5689720101655 2.8457447672768
35.5998754370958 2.90383966991518
35.6307788640261 3.00658552119784
35.6616822909564 3.25666089255335
35.6925857178867 3.02013721255314
35.723489144817 3.18540733834006
35.7543925717473 3.48014984134269
35.7852959986776 3.43561472156103
35.8161994256079 3.15001626470936
35.8471028525382 3.11442589935911
35.8780062794685 3.45830791122457
35.9089097063988 3.40934087173431
35.9398131333292 3.5077033523169
35.9707165602595 3.42750249582948
36.0016199871898 3.67766687370063
36.0325234141201 3.40551791450176
36.0634268410504 3.57534133251861
36.0943302679807 3.22731569917974
36.125233694911 3.69626244305657
36.1561371218413 3.5491458498634
36.1870405487716 3.30382306245736
36.2179439757019 3.79957979512417
36.2488474026322 3.71945176214954
36.2797508295625 3.43843896353349
36.3106542564929 3.28689854213313
36.3415576834232 2.99250906937706
36.3724611103535 3.31419911669384
36.4033645372838 3.40821868408347
36.4342679642141 2.86385348583166
36.4651713911444 2.60074637908127
36.4960748180747 2.36889736383231
36.526978245005 2.21741358294191
36.5578816719353 2.66415217926721
36.5887850988656 2.3742917242368
36.6196885257959 2.31211793213638
36.6505919527262 2.28566651725167
36.6814953796566 1.74583033672552
36.7123988065869 1.79975224770079
36.7433022335172 2.12153939303463
36.7742056604475 1.81833462986989
36.8051090873778 1.85442367249228
36.8360125143081 1.57355652090181
36.8669159412384 1.5605546036699
36.8978193681687 1.46273934936799
36.928722795099 1.1149321865675
36.9596262220293 1.39659740098272
36.9905296489596 1.26755642118507
37.0214330758899 1.48227353288885
37.0523365028203 0.996105878951185
37.0832399297506 1.42512488794352
37.1141433566809 1.23361627415156
37.1450467836112 0.881401466146731
37.1759502105415 0.953301892500472
37.2068536374718 0.730567553212777
37.2377570644021 0.949805591140787
37.2686604913324 0.392266006284507
37.2995639182627 0.696341655786791
37.330467345193 0.674532539647639
37.3613707721233 0.706302943581337
37.3922741990536 0.452367153302172
37.423177625984 0.493082311667284
37.4540810529143 0.533805561533819
37.4849844798446 0.480786902901774
37.5158879067749 0.53491919291401
37.5467913337052 0.325666717284808
37.5776947606355 0.415529476014172
37.6085981875658 0.532186040530673
37.6395016144961 0.11313641083431
37.6704050414264 0.390523444067936
37.7013084683567 0.658989997374417
37.732211895287 0.0747860707537455
37.7631153222173 0.20487594992021
37.7940187491477 0.138545349159526
37.824922176078 -0.0706343029568792
37.8558256030083 0.126444136428136
37.8867290299386 0.314602095886002
37.9176324568689 0.217053861131005
37.9485358837992 0.373978003591714
37.9794393107295 0.289838808982416
38.0103427376598 0.0092791344459684
38.0412461645901 0.326941837125228
38.0721495915204 0.274076917020196
38.1030530184507 0.136398659845156
38.133956445381 -0.0369857915427474
38.1648598723114 0.0798164199993412
38.1957632992417 0.0894838658999948
38.226666726172 -0.199947739555072
38.2575701531023 0.215985889348425
38.2884735800326 -0.0287866759609416
38.3193770069629 0.159484564516827
38.3502804338932 -0.107593246361126
38.3811838608235 0.138729891405202
38.4120872877538 0.0591682635300916
38.4429907146841 -0.029313844272167
38.4738941416144 -0.12225214628729
38.5047975685447 0.320531928913296
38.5357009954751 0.0624312384724437
38.5666044224054 0.0677314966758713
38.5975078493357 0.122146989237864
38.628411276266 -0.100215140984437
38.6593147031963 0.18189510600897
38.6902181301266 0.34794201593237
38.7211215570569 0.0184613030714784
38.7520249839872 0.0505958245691494
38.7829284109175 0.0425598661396709
38.8138318378478 0.0345319992116151
38.8447352647781 0.0532979380706955
38.8756386917084 -0.0172137458545185
38.9065421186388 0.0104969474359757
38.9374455455691 0.100715732227892
38.9683489724994 0.427549751378372
38.9992523994297 -0.0447152808268694
39.03015582636 -0.0884007929592601
39.0610592532903 -0.0561853564473713
39.0919626802206 0.185859600137367
39.1228661071509 0.106484076794956
39.1537695340812 -0.044311926474605
39.1846729610115 0.327221590328683
39.2155763879418 -0.0914153727951765
39.2464798148721 -0.0234371015604733
39.2773832418025 0.138299261175652
39.3082866687328 0.0768294296989129
39.3391900956631 -0.00248945313354731
39.3700935225934 0.0342711841068439
39.4009969495237 0.0799684842772264
39.431900376454 0.344423875949031
39.4628038033843 0.144601644836544
39.4937072303146 0.0117517909397646
39.5246106572449 0.128910028544404
39.5555140841752 -0.0664236423495321
39.5864175111055 0.148965063972239
39.6173209380358 0.181326147509716
39.6482243649662 0.325302465405758
39.6791277918965 -0.008391696625349
39.7100312188268 0.135600804273535
39.7409346457571 0.351029968102413
39.7718380726874 0.0887886520041423
39.8027414996177 0.27744828455015
39.833644926548 0.0241517228832935
39.8645483534783 0.12354182414643
39.8954517804086 0.294368588339559
39.9263552073389 0.0946677297483962
39.9572586342692 -0.171989323055631
39.9881620611995 0.347076001356049
40.0190654881299 0.330435131554865
40.0499689150602 0.0280880675408177
40.0808723419905 0.207891952171048
40.1117757689208 0.298418214016985
40.1426791958511 0.0362739959357734
40.1735826227814 0.0777092979274121
40.2044860497117 0.163795548563329
40.235389476642 0.142747033557812
40.2662929035723 0.0190280386251436
40.2971963305026 0.140852849479612
40.3280997574329 0.249292894692644
40.3590031843632 0.246133888549955
40.3899066112936 0.0376258310515443
40.4208100382239 0.226447293625984
40.4517134651542 0.187598276273276
40.4826168920845 0.246971636136273
40.5135203190148 0.297424516072121
40.5444237459451 -0.0137216553477524
40.5753271728754 0.166211693305224
40.6062305998057 -0.158311152254663
40.637134026736 0.182352665115443
40.6680374536663 0.210524573986971
40.6989408805966 0.0244188600742055
40.7298443075269 0.14189266623429
40.7607477344573 0.375445992467226
40.7916511613876 -0.0695640183698458
40.8225545883179 0.226505490865932
40.8534580152482 0.0315116630317052
40.8843614421785 0.26063306955604
40.9152648691088 -0.0414874324182017
40.9461682960391 0.0358644428232635
40.9770717229694 0.340902980994721
41.0079751498997 -0.0058361036181136
41.03887857683 0.18314718898476
41.0697820037603 0.278388573089054
41.1006854306906 0.235245191551914
41.131588857621 -0.106997241340949
41.1624922845513 0.273982702981896
41.1933957114816 0.400506453091877
41.2242991384119 -0.0979617052967203
41.2552025653422 0.0375067992446754
41.2861059922725 0.119411966716064
41.3170094192028 0.170075225688875
41.3479128461331 0.162710861877392
41.3788162730634 0.374104589567332
41.4097196999937 -0.0216364483841645
41.440623126924 0.154059176594333
41.4715265538543 0.307441464502823
41.5024299807847 0.054581843912735
41.533333407715 -0.108983970890217
41.5642368346453 0.138172591522538
41.5951402615756 0.269265816865286
41.6260436885059 -0.0505257234334024
41.6569471154362 -0.0354877436592398
41.6878505423665 0.0956297561877726
41.7187539692968 0.356219633250494
41.7496573962271 0.148067601814636
41.7805608231574 -0.0288263381198011
41.8114642500877 0.356787813447184
41.842367677018 0.349552913658449
41.8732711039484 -0.0594596089145805
41.9041745308787 0.0404645314423835
41.935077957809 0.189503906157913
41.9659813847393 0.0930156580891488
41.9968848116696 0.326892644378949
42.0277882385999 0.141134865027314
42.0586916655302 0.209849462891387
42.0895950924605 0.225000723685453
42.1204985193908 0.213374361695226
42.1514019463211 0.241934662634991
42.1823053732514 -0.18931837349525
42.2132088001817 0.27675811044736
42.2441122271121 0.0821284001771057
42.2750156540424 0.4723282099797
42.3059190809727 0.0143218255694322
42.336822507903 0.136680675517727
42.3677259348333 0.0269047598245882
42.3986293617636 0.247494078490013
42.4295327886939 0.0707700600854304
42.4604362156242 0.103875561753699
42.4913396425545 0.217346297780531
42.5222430694848 0.205825125308785
42.5531464964151 0.167526330052747
42.5840499233454 0.272092769155273
42.6149533502758 0.506131585473508
42.6458567772061 0.0883927790074468
42.6767602041364 0.505483492614238
42.7076636310667 0.13240372629388
42.738567057997 0.053974908617799
42.7694704849273 0.167518468157428
42.8003739118576 0.21410583348419
42.8312773387879 0.416951290312374
42.8621807657182 0.191233410070553
42.8930841926485 0.456595049901582
42.9239876195788 0.485357638376887
42.9548910465091 0.0855568897821879
42.9857944734395 0.37326423268891
43.0166979003698 0.455622524239909
43.0476013273001 0.430846050149474
43.0785047542304 0.205184810417604
43.1094081811607 0.457210233615727
43.140311608091 0.494958034029556
43.1712150350213 0.479142497373379
43.2021184619516 0.597263623647195
43.2330218888819 0.362714269993861
43.2639253158122 0.199601579270521
43.2948287427425 0.576675551477173
43.3257321696728 0.48054332947096
43.3566355966032 0.549597770394743
43.3875390235335 0.328481731391373
43.4184424504638 0.428802355317998
43.4493458773941 0.332702499317472
43.4802493043244 0.455360734818369
43.5111527312547 0.444098490392116
43.542056158185 0.736415766038713
43.5729595851153 0.363562561758159
43.6038630120456 0.227324591836171
43.6347664389759 0.332166141987033
43.6656698659062 0.682551497925029
43.6965732928365 0.407944945364449
43.7274767197669 0.405667912876718
43.7583801466972 0.617684686176124
43.7892835736275 0.494888122405523
43.8201870005578 0.412278221564914
43.8510904274881 0.923426412225727
43.8819938544184 0.653332694387962
43.9128972813487 0.490389925194475
43.943800708279 0.403348104645268
43.9747041352093 0.709171518454625
44.0056075621396 0.349824452336832
44.0365109890699 0.977092620577603
44.0674144160002 0.497226023176939
44.0983178429306 0.687010374420553
44.1292212698609 0.756267102879876
44.1601246967912 0.937139065697763
44.1910281237215 0.6715905485885
44.2219315506518 0.196228694409229
44.2528349775821 0.591410646017096
44.2837384045124 0.660707831983525
44.3146418314427 0.149655966594235
44.345545258373 0.620755049849222
44.3764486853033 0.515969367462775
44.4073521122336 0.57637034800632
44.4382555391639 0.627850848622717
44.4691589660943 0.732910869311961
44.5000623930246 0.757621838645487
44.5309658199549 0.505555185194718
44.5618692468852 0.557068051816801
44.5927726738155 0.608589009940305
44.6236761007458 0.267260916708087
44.6545795276761 0.809869486405862
44.6854829546064 0.548914719033631
44.7163863815367 0.627253757448536
44.747289808467 0.486850887364862
44.7781932353973 0.484848965925467
44.8090966623276 0.42481942170178
44.840000089258 0.445155111836656
44.8709035161883 0.25121317918724
44.9018069431186 0.52156505232496
44.9327103700489 0.0374607312498165
44.9636137969792 0.352471644533237
44.9945172239095 0.198740649318079
45.0254206508398 0.366446317032914
45.0563240777701 0.565410076249171
45.0872275047004 0.273310498395422
45.1181309316307 0.182111869185951
45.149034358561 0.251635617192187
45.1799377854913 0.205096028128415
45.2108412124217 0.0291002448517803
45.241744639352 0.290612553076568
45.2726480662823 0.199454381374204
45.3035514932126 0.492232872601834
45.3344549201429 -0.0498019732405419
45.3653583470732 0.0644212724185023
45.3962617740035 0.205438323864683
45.4271652009338 0.0964634668122848
45.4580686278641 0.317853844118452
45.4889720547944 0.0347880272117544
45.5198754817247 0.224944587520764
45.550778908655 -0.129533617811662
45.5816823355854 0.190103411214478
45.6125857625157 0.00974853174203805
45.643489189446 0.244580315199592
45.6743926163763 0.0195987615871385
45.7052960433066 -0.0223389862381786
45.7361994702369 0.100909928866497
45.7671028971672 0.219702649758309
45.7980063240975 -0.0989965378484579
45.8289097510278 0.484098080331911
45.8598131779581 0.0984507900137022
45.8907166048884 0.261918734054058
45.9216200318187 0.0102161981672637
45.9525234587491 0.289771753781891
45.9834268856794 0.314871115183653
46.0143303126097 0.16140713951541
46.04523373954 0.0838441124914446
46.0761371664703 0.126824891254616
46.1070405934006 -0.0623290956236486
46.1379440203309 0.11013215185665
46.1688474472612 0.420994347981229
46.1997508741915 0.289900349892944
46.2306543011218 0.274885871877508
46.2615577280521 0.0902366282206373
46.2924611549824 0.307381190350903
46.3233645819128 0.136140986839734
46.3542680088431 0.201516017687127
46.3851714357734 -0.0188151456783423
46.4160748627037 0.0867546396004659
46.446978289634 0.308403944952126
46.4778817165643 0.137204198948063
46.5087851434946 0.16690540158828
46.5396885704249 0.156436124301346
46.5705919973552 0.0611535099444067
46.6014954242855 -0.136799584339684
46.6323988512158 -0.0981442036401798
46.6633022781461 0.172662125703604
46.6942057050765 -0.163666310594048
46.7251091320068 -0.0803437982474211
46.7560125589371 0.199415377029198
46.7869159858674 0.0238255009500969
46.8178194127977 0.191993716372417
46.848722839728 0.21284859472473
46.8796262666583 0.171211564578464
46.9105296935886 0.000118340219334989
46.9414331205189 0.0209974930759138
46.9723365474492 0.506170451719627
47.0032399743795 0.165458644721905
47.0341434013098 0.302433500654177
47.0650468282402 0.0912021623735839
47.0959502551705 0.250514629880128
47.1268536821008 0.217870903173806
47.1577571090311 0.395056696540336
47.1886605359614 -0.0259637043059975
47.2195639628917 -0.0809045850794829
47.250467389822 0.0873769113627398
47.2813708167523 0.1574522135921
47.3122742436826 0.0623570358943084
47.3431776706129 0.22619852112651
47.3740810975432 -0.123344759282722
47.4049845244735 0.138727194666608
47.4358879514039 0.150807240117361
47.4667913783342 0.216466805640964
47.4976948052645 0.112491605523131
47.5285982321948 0.16477449690672
47.5595016591251 0.118851194077446
47.5904050860554 0.189007411321021
47.6213085129857 -0.0622568513625543
47.652211939916 0.0391655488838643
47.6831153668463 0.261131754917419
47.7140187937766 0.0322131953095379
47.7449222207069 0.12473129863165
47.7758256476372 -0.059528220830531
47.8067290745676 -0.0205653630770044
47.8376325014979 0.27286987189223
47.8685359284282 0.128813198362885
47.8994393553585 0.0160146163349628
47.9303427822888 0.291616982951319
47.9612462092191 -0.0934868446451897
47.9921496361494 0.0615959906882955
48.0230530630797 0.10507977466606
48.05395649001 -0.132678349854755
48.0848599169403 0.142964474268709
48.1157633438706 0.190936818465024
48.1466667708009 0.328202968448474
48.1775701977313 0.30476292421906
48.2084736246616 -0.14724045708036
48.2393770515919 0.208799967407355
48.2702804785222 0.0157413405393489
48.3011839054525 -0.0165949091129498
48.3320873323828 0.0269697898790309
48.3629907593131 0.182149723229576
48.3938941862434 0.399837748081542
48.4247976131737 -0.0342518498507847
48.455701040104 0.201309500861168
48.4866044670343 -0.0407996283540291
48.5175078939646 0.00727790536076611
48.548411320895 0.283042102005555
48.5793147478253 0.304350104437479
48.6102181747556 0.16495191265654
48.6411216016859 -0.126223901908692
48.6720250286162 0.145108375027498
48.7029284555465 -0.181765542249177
48.7338318824768 0.152082917689856
48.7647353094071 0.10201089770174
48.7956387363374 0.00730411207218751
48.8265421632677 0.22064113222977
48.857445590198 0.0322005296030605
48.8883490171283 -0.263374838665084
48.9192524440587 -0.0292399695824637
48.950155870989 -0.0450970089984235
48.9810592979193 0.32298261451561
49.0119627248496 -0.139286813326078
49.0428661517799 0.170773278905084
49.0737695787102 0.212984319780526
49.1046730056405 0.0364534521573887
49.1355764325708 0.016180676035674
49.1664798595011 0.071808848558236
49.1973832864314 0.105123684010794
49.2282867133617 -0.290124817606658
49.259190140292 0.136063343705886
49.2900935672224 0.0220810250912784
49.3209969941527 0.0643567979780926
49.351900421083 0.120033519509186
49.3828038480133 0.215896903970273
49.4137072749436 -0.143588762924363
49.4446107018739 -0.0432449097461483
49.4755141288042 -0.0946786793522243
49.5064175557345 -0.11485435745688
49.5373209826648 0.0167637702255998
49.5682244095951 0.0233899894095018
49.5991278365254 0.123774300094825
49.6300312634557 0.0768452737101422
49.6609346903861 0.132602910255452
49.6918381173164 0.353547209730753
49.7227415442467 0.0744996007074779
49.753644971177 0.304388654614195
49.7845483981073 0.190535800022334
49.8154518250376 -0.0393803916395346
49.8463552519679 0.0878543653428778
49.8772586788982 0.0142043566838526
49.9081621058285 -0.108544703330894
49.9390655327588 0.143714328155783
49.9699689596891 0.0209814511438795
50.0008723866194 0.0500423799191134
50.0317758135498 0.0255399716243394
50.0626792404801 -0.329311488026155
50.0935826674104 0.0837022866819144
50.1244860943407 0.161902724319978
50.155389521271 -0.00988874654053884
50.1862929482013 -0.0879221258996328
50.2171963751316 0.168874014814123
50.2480998020619 -0.163607467256414
50.2790032289922 -0.000545143539813608
50.3099066559225 -0.0428318711789357
50.3408100828528 0.151496635540507
50.3717135097831 -0.189881051952915
50.4026169367135 0.0803564949122295
50.4335203636438 -0.100290723864063
50.4644237905741 0.111927291718209
50.4953272175044 0.0250462559447593
50.5262306444347 -0.030576688327268
50.557134071365 0.199522744616412
50.5880374982953 0.0457016976329419
50.6189409252256 0.0749244564366078
50.6498443521559 -0.0208446932583044
50.6807477790862 0.31642996283392
50.7116512060165 -0.15432300385815
50.7425546329468 0.236539263808345
50.7734580598772 0.305981051547692
50.8043614868075 0.13435950221703
50.8352649137378 -0.0551110984693528
50.8661683406681 0.121497820917114
50.8970717675984 0.298114831805004
50.9279751945287 0.3229542199086
50.958878621459 0.187087413799333
50.9897820483893 0.243192984905773
51.0206854753196 -0.0801576382006504
51.0515889022499 0.243821258765776
51.0824923291802 0.000843961519336744
51.1133957561105 0.119481898631463
51.1442991830409 0.215806498673582
51.1752026099712 0.0264249045028375
51.2061060369015 -0.10491288388077
51.2370094638318 0.326257419237043
51.2679128907621 0.132435813856278
51.2988163176924 0.35826515711979
51.3297197446227 0.0796383061704402
51.360623171553 -0.0516590247060602
51.3915265984833 0.147408878776004
51.4224300254136 0.270592016616632
51.4533334523439 -0.133002468327032
51.4842368792742 0.0928754239450109
51.5151403062046 0.108939979147048
51.5460437331349 0.191976911564791
51.5769471600652 0.0562719354839567
51.6078505869955 0.103610765190258
51.6387540139258 0.360779114969409
51.6696574408561 0.0286698419642679
51.7005608677864 0.187640089031977
51.7314642947167 -0.0819530009703211
51.762367721647 0.077033429100231
51.7932711485773 0.222635093529348
51.8241745755076 0.131637706602744
51.8550780024379 0.0585055540347028
51.8859814293683 0.221988635825228
51.9168848562986 0.184586951974317
51.9477882832289 0.209693359624827
51.9786917101592 -0.144656426937527
52.0095951370895 -0.00346240771274431
52.0404985640198 0.0841682744420327
52.0714019909501 -0.131764380473199
52.1023054178804 -0.057510372458438
52.1332088448107 -0.0278911300851119
52.164112271741 -0.0161209390675063
52.1950156986713 0.147443057737235
52.2259191256016 0.0476222889005395
52.256822552532 0.108523897279552
52.2877259794623 0.156040740017129
52.3186294063926 0.0785656742561276
52.3495328333229 0.143955842853692
52.3804362602532 0.343282674381248
52.4113396871835 0.283689025981655
52.4422431141138 0.116960611940626
52.4731465410441 0.119883146543875
52.5040499679744 0.430849486934261
52.5349533949047 0.107895347397497
52.565856821835 0.146556442219298
52.5967602487653 0.176297057113948
52.6276636756957 -0.115382807918552
52.658567102626 0.351873989978943
52.6894705295563 0.426281736520715
52.7203739564866 -0.06180242543609
52.7512773834169 0.146550075537098
52.7821808103472 0.194196382297422
52.8130842372775 0.045422209130594
52.8439876642078 0.258263270322332
52.8748910911381 0.167540994444064
52.9057945180684 0.210755381495788
52.9366979449987 0.164692145763219
52.967601371929 0.417744144389215
52.9985047988594 0.389554234516632
53.0294082257897 0.441729559002615
53.06031165272 0.342127260704305
53.0912150796503 -0.0119312318068712
53.1221185065806 0.290268367183376
53.1530219335109 0.373726057675047
53.1839253604412 0.269691839668137
53.2148287873715 0.192451427448362
53.2457322143018 0.472361963872867
53.2766356412321 0.662994877513079
53.3075390681624 0.27327873979757
53.3384424950928 0.280892122154912
53.3693459220231 0.230477881727961
53.4002493489534 0.322928875659574
53.4311527758837 0.263602246806895
53.462056202814 0.204283709455637
53.4929596297443 0.296758977891515
53.5238630566746 0.451742337828815
53.5547664836049 0.236198074981822
53.5856699105352 0.275126189350536
53.6165733374655 0.599776680934958
53.6474767643958 0.0896138354493727
53.6783801913261 0.240173367179495
53.7092836182565 -0.10033043816039
53.7401870451868 0.362745276572576
53.7710904721171 0.27672193994982
53.8019938990474 0.431778123399915
53.8328973259777 0.220770969780002
53.863800752908 0.273164764804369
53.8947041798383 0.0353880799015851
53.9256076067686 0.386905200785937
53.9565110336989 0.381287556028854
53.9874144606292 0.406928002773193
54.0183178875595 0.392397969590382
54.0492213144898 0.270733170766134
54.0801247414202 0.318719320586166
54.1110281683505 0.500642133336192
54.1419315952808 0.468287323301924
54.1728350222111 0.440404890483364
54.2037384491414 0.166994834880511
54.2346418760717 0.201628585064794
54.265545303002 0.352341855321928
54.2964487299323 0.48520607422334
54.3273521568626 0.158256956054744
54.3582555837929 0.188458786530428
54.3891590107232 0.446347279936106
54.4200624376535 0.539065293414634
54.4509658645839 0.0648271126802964
54.4818692915142 0.282561309161667
54.5127727184445 0.138696454287315
54.5436761453748 0.124303976628672
54.5745795723051 0.29741959047145
54.6054829992354 0.256257581529936
54.6363864261657 0.527603664089844
54.667289853096 0.298957838151171
54.6981932800263 0.0524629608567793
54.7290967069566 0.00686903220666579
54.7600001338869 0.202354623629403
54.7909035608172 0.129991163696418
54.8218069877476 0.379064366693426
54.8527104146779 0.324574232620428
54.8836138416082 -0.0022292385225775
54.9145172685385 0.170975381835839
54.9454206954688 0.0316880936956769
54.9763241223991 0.178123182771222
55.0072275493294 0.279923506205331
55.0381309762597 -0.158446650287709
55.06903440319 0.0505127132921013
55.0999378301203 0.214837311230476
55.1308412570506 0.14256285781313
55.1617446839809 0.137260781611491
55.1926481109113 -0.122497488803013
55.2235515378416 0.21596661799819
55.2544549647719 0.241938816300816
55.2853583917022 0.223276248962006
55.3162618186325 0.11980034455319
55.3471652455628 0.248475388788651
55.3780686724931 -0.149627189760179
55.4089720994234 0.059421180335268
55.4398755263537 0.130084784789282
55.470778953284 0.191827909316144
55.5016823802143 0.200007696773
55.5325858071446 0.118909861445562
55.563489234075 0.158355831905263
55.5943926610053 0.0951313224378119
55.6252960879356 0.268522047328925
55.6561995148659 -0.0402219934213965
55.6871029417962 0.182292057329704
55.7180063687265 -0.117507228989203
55.7489097956568 0.475558719050454
55.7798132225871 -0.0161886699798952
55.8107166495174 0.44742917534832
55.8416200764477 0.107483683606527
55.872523503378 0.178260569080443
55.9034269303083 0.124045546055781
55.9343303572387 0.239481471675395
55.965233784169 0.363854060225005
55.9961372110993 0.0239490259903219
56.0270406380296 0.34030208325706
56.0579440649599 0.366484660596647
56.0888474918902 0.334639615151943
56.1197509188205 0.235838375494374
56.1506543457508 0.279902370195371
56.1815577726811 0.181117313540645
56.2124611996114 0.345733205530199
56.2433646265417 0.318392903306888
56.274268053472 -0.0125107359864289
56.3051714804024 0.0494508590788172
56.3360749073327 0.0265991170740572
56.366978334263 0.32518403799929
56.3978817611933 0.19074133614023
56.4287851881236 0.109878154354021
56.4596886150539 0.154023064069234
56.4905920419842 0.349961779571582
56.5214954689145 0.327158586575353
56.5523988958448 0.3177563422234
56.5833023227751 0.1119336179443
56.6142057497054 0.18736898516662
56.6451091766357 0.669062443890363
56.6760126035661 0.400763994115526
56.7069160304964 0.413723635842111
56.7378194574267 0.328477083355833
56.768722884357 0.261095765228118
56.7996263112873 0.452651110030398
56.8305297382176 0.296000260619811
56.8614331651479 0.407214645567791
56.8923365920782 0.299687122017192
56.9232400190085 0.3216319756823
56.9541434459388 0.441799206563115
56.9850468728691 0.481617386088209
57.0159502997994 0.726800799971869
57.0468537267298 0.351456591071235
57.0777571536601 0.440406187957737
57.1086605805904 0.68561387634566
57.1395640075207 0.42636537052072
57.170467434451 0.484089241911488
57.2013708613813 0.456999776232247
57.2322742883116 0.514739830625857
57.2631777152419 0.407309405092318
57.2940811421722 0.5811370710602
57.3249845691025 0.424615685672362
57.3558879960328 0.540423820357373
57.3867914229631 0.437490046543805
57.4176948498935 0.392600078517374
57.4485982768238 0.463789630563793
57.4795017037541 0.60195155982592
57.5104051306844 0.561550152018038
57.5413085576147 0.449728264283008
57.572211984545 0.596843039477971
57.6031154114753 0.552001620460069
57.6340188384056 0.922346864372161
57.6649222653359 0.64091448549996
57.6958256922662 0.279133055272037
57.7267291191965 0.484324002259823
57.7576325461268 0.408273040749029
57.7885359730572 0.711694456453943
57.8194393999875 1.01512396366028
57.8503428269178 0.818561562368036
57.8812462538481 0.590757252577214
57.9121496807784 0.456711034287815
57.9430531077087 0.563744336071266
57.973956534639 0.443107157927567
58.0048599615693 0.371585214142431
58.0357633884996 0.661678504715863
58.0666668154299 0.826779886790715
58.0975702423602 0.625817931795559
58.1284736692905 0.679328354016111
58.1593770962209 0.639096867738084
58.1902805231512 0.634587758675766
58.2211839500815 0.67026531254344
58.2520873770118 0.589879529341106
58.2829908039421 0.777358980497337
58.3138942308724 0.897882237440705
58.3447976578027 0.746092157314067
58.375701084733 0.643417311545991
58.4066045116633 0.857714842993624
58.4375079385936 0.737199037371249
58.4684113655239 0.786334180393154
58.4993147924542 0.576548843487908
58.5302182193846 0.554271598084084
58.5611216463149 0.706109587038824
58.5920250732452 0.389205667494987
58.6229285001755 0.831238410881142
58.6538319271058 0.697386388625863
58.6847353540361 0.70193531501486
58.7156387809664 0.795778047190995
58.7465422078967 0.648557442297123
58.777445634827 0.987952071761814
58.8083490617573 0.746997649870786
58.8392524886876 0.398908462338321
58.8701559156179 0.474934509164421
58.9010593425483 0.202754361777656
58.9319627694786 0.327903734463743
58.9628661964089 0.32806119865125
58.9937696233392 0.252333897197323
59.0246730502695 0.426614687244816
59.0555764771998 0.319653568793732
59.0864799041301 0.28412911327264
59.1173833310604 0.328969892110114
59.1482867579907 0.489890191020436
59.179190184921 0.36956858143218
59.2100936118513 0.570683634773919
59.2409970387816 0.481628208188507
59.271900465712 0.19168801596166
59.3028038926423 0.334791629521948
59.3337073195726 0.031474763155086
59.3646107465029 0.170130274003932
59.3955141734332 0.032008162068486
59.4264176003635 0.175144141634461
59.4573210272938 0.465609641273286
59.4882244542241 0.336440375270676
59.5191278811544 0.100136343626629
59.5500313080847 0.345983260626862
59.580934735015 0.310588269128517
59.6118381619453 0.0921656548458794
59.6427415888757 0.177322560636092
59.673645015806 0.472308986499153
59.7045484427363 0.0217677895779236
59.7354518696666 0.566770398443829
59.7663552965969 0.0716025273825851
59.7972587235272 0.255014176394191
59.8281621504575 0.139326774050076
59.8590655773878 0.327218891778811
59.8899690043181 0.506190529580396
59.9208724312484 0.515527401740546
59.9517758581787 0.654336651116403
59.982679285109 0.355653991993682
60.0135827120394 0.311443710086667
60.0444861389697 0.735991519681075
60.0753895659 0.584654563634047
60.1062929928303 0.741361413374156
60.1371964197606 0.335576354615686
60.1680998466909 0.469977958787208
60.1990032736212 0.622244797317295
60.2299067005515 0.270055441634518
60.2608101274818 0.36876703459602
60.2917135544121 0.53445100477323
60.3226169813424 0.651035923594718
60.3535204082727 0.544414648203341
60.3844238352031 0.455658607170531
60.4153272621334 0.38923208621057
60.4462306890637 0.751385085323458
60.477134115994 0.524260461652055
60.5080375429243 0.538215358053502
60.5389409698546 0.851285488813512
60.5698443967849 0.767042282503516
60.6007478237152 0.651557167694943
60.6316512506455 0.589651572959219
60.6625546775758 1.10364692686777
60.6934581045061 0.617650372277749
60.7243615314364 0.537911909189147
60.7552649583668 0.864431537601967
60.7861683852971 1.26685211465907
60.8170718122274 1.00410221178901
60.8479752391577 0.727967543277527
60.878878666088 1.1259481091246
60.9097820930183 0.75607962361596
60.9406855199486 0.868362086751596
60.9715889468789 0.895831212817224
61.0024923738092 1.02598700181285
61.0333958007395 1.18740088230989
61.0642992276698 1.13453714002264
61.0952026546001 1.01918148923681
61.1261060815305 1.05561964423812
61.1570095084608 0.864387319312277
61.1879129353911 1.26691308588786
61.2188163623214 1.27658980110771
61.2497197892517 1.02734603640042
61.280623216182 1.38078893462312
61.3115266431123 1.40834706720439
61.3424300700426 0.882341862715651
61.3733334969729 1.07509474972833
61.4042369239032 0.799105728242434
61.4351403508335 0.822231941115101
61.4660437777638 0.979294816917761
61.4969472046942 1.12743721279327
61.5278506316245 0.97648055731306
61.5587540585548 0.834460564762842
61.5896574854851 1.03173437799976
61.6205609124154 0.670980568452386
61.6514643393457 0.953091993263576
61.682367766276 0.775390081004758
61.7132711932063 1.16019626024736
61.7441746201366 0.995903388134246
61.7750780470669 0.925368607522552
61.8059814739972 0.935199061269421
61.8368849009275 1.02985903508914
61.8677883278579 0.566491386124568
61.8986917547882 1.39331040008999
61.9295951817185 0.889780362699686
61.9604986086488 0.756794131096521
61.9914020355791 0.735423133851921
62.0223054625094 0.696203085251598
62.0532088894397 0.840026842438414
62.08411231637 0.52403726255522
62.1150157433003 0.565198631316306
62.1459191702306 1.1108323772931
62.1768225971609 1.07611707191417
62.2077260240912 0.769088429465236
62.2386294510216 0.859389307089152
62.2695328779519 0.793448276214488
62.3004363048822 0.977515336841248
62.3313397318125 0.835697631826569
62.3622431587428 0.9483523040276
62.3931465856731 0.971729353444337
62.4240500126034 0.736185922933926
62.4549534395337 0.839936298210649
62.485856866464 0.649051907845938
62.5167602933943 0.748354180411219
62.5476637203246 0.700343115906494
62.5785671472549 0.335375857188905
62.6094705741853 0.881130975687022
62.6403740011156 0.739394185686562
62.6712774280459 0.79855834433038
62.7021808549762 0.665766308761333
62.7330842819065 0.53298236469371
62.7639877088368 0.681456512127507
62.7948911357671 0.60672446534844
62.8257945626974 0.804321938642223
62.8566979896277 0.434963217723143
62.887601416558 0.503112588305484
62.9185048434883 0.665020050389247
62.9494082704186 0.554614175403001
62.980311697349 0.462073534775322
63.0112151242793 0.735612414220492
63.0421185512096 0.468980813738514
63.0730219781399 0.421107304757956
63.1039254050702 0.761634744421677
63.1348288320005 0.749491704158248
63.1657322589308 0.482892469681955
63.1966356858611 0.435051326707084
63.2275391127914 0.780075418090777
63.2584425397217 0.29475045811875
63.289345966652 0.456755018219572
63.3202493935823 0.400017669821816
63.3511528205127 0.356681270068339
63.382056247443 0.366924390387712
63.4129596743733 0.537889887922791
63.4438631013036 0.842792048387865
63.4747665282339 0.451273728925788
63.5056699551642 0.675834929536562
63.5365733820945 0.806654221648759
63.5674768090248 0.441945890976661
63.5983802359551 0.242424223234557
63.6292836628854 0.583089218422445
63.6601870898157 0.678226590826041
63.691090516746 0.791229197588202
63.7219939436764 0.582811324423213
63.7528973706067 0.677972971331074
63.783800797537 0.277606995454642
63.8147042244673 0.783499111079633
63.8456076513976 0.432256461063186
63.8765110783279 0.49173618826245
63.9074145052582 0.444081149820276
63.9383179321885 0.780362774308095
63.9692213591188 0.388973918868765
64.0001247860491 0.622593154930856
64.0310282129794 0.579434768208655
64.0619316399097 0.679141615845018
64.0928350668401 0.631535126411374
64.1237384937704 0.659829585622009
64.1546419207007 0.741703564905495
64.185545347631 0.50215706426183
64.2164487745613 0.579582940833873
64.2473522014916 0.407016908907337
64.2782556284219 0.430887539910795
64.3091590553522 0.405659119558532
64.3400624822825 0.585795933564832
64.3709659092128 0.14540512478684
64.4018693361431 0.754129550367413
64.4327727630734 1.04143349602084
64.4636761900038 0.520709818889965
64.4945796169341 0.51785137611766
64.5254830438644 0.60428673913249
64.5563864707947 0.476444479363029
64.587289897725 0.339681739666417
64.6181933246553 0.805605662899798
64.6490967515856 0.463501963348887
64.6800001785159 0.746406355299397
64.7109036054462 0.792711695894186
64.7418070323765 0.673846556561825
64.7727104593068 0.608560937302313
64.8036138862371 0.650426266687083
64.8345173131675 0.156585401858987
64.8654207400978 0.377038342818026
64.8963241670281 0.298392232421345
64.9272275939584 0.728682784954657
64.9581310208887 0.489338571846533
64.989034447819 0.691966735954117
65.0199378747493 0.0508529915631222
65.0508413016796 0.579390195816407
65.0817447286099 0.679364062999683
65.1126481555402 0.431131735970097
65.1435515824705 0.151657500441931
65.1744550094008 0.42129849927233
65.2053584363312 0.280233303889865
65.2362618632615 0.130247628580251
65.2671652901918 0.55169861620063
65.2980687171221 0.415121981036715
65.3289721440524 0.0955177230885083
65.3598755709827 0.280385842356009
65.390778997913 0.264369195982074
65.4216824248433 0.324253498252418
65.4525858517736 0.424324463452755
65.4834892787039 0.38154637729737
65.5143927056342 0.343240668357693
65.5452961325645 0.246907336633722
65.5761995594949 0.364867810696889
65.6071029864252 0.121229233404335
65.6380064133555 0.0427773190417726
65.6689098402858 0.312547781894917
65.6998132672161 0.0778620505351988
65.7307166941464 0.0887201249626157
65.7616201210767 0.0281577194628833
65.792523548007 0.266710548321716
65.8234269749373 0.10795004011054
65.8543304018676 0.315269051972216
65.8852338287979 0.0449175839067406
65.9161372557282 0.100467064485545
65.9470406826586 0.0712032079943423
65.9779441095889 0.336590300147418
66.0088475365192 0.387699769516201
66.0397509634495 0.0459601875292632
66.0706543903798 0.306907268472319
66.1015578173101 0.15714815520251
66.1324612442404 0.284182847719837
66.1633646711707 0.121047060310015
66.194268098101 -0.0465449213126723
66.2251715250313 0.000156902851776941
66.2560749519616 0.104902532803361
66.2869783788919 -0.25016517431506
66.3178818058223 0.189418067210797
66.3487852327526 0.289723685952361
66.3796886596829 0.166823110481061
66.4105920866132 0.267144912225469
66.4414955135435 0.202296234042726
66.4723989404738 0.182098504504262
66.5033023674041 -0.0434482763899222
66.5342057943344 0.0211916056458863
66.5651092212647 -0.0838032779597411
66.596012648195 -0.139682927206803
66.6269160751253 -0.0775036650890257
66.6578195020556 0.444505117101603
66.688722928986 0.180807705079366
66.7196263559163 0.234082670272837
66.7505297828466 -0.00281284446084129
66.7814332097769 0.0460140180211877
66.8123366367072 0.0769918291474951
66.8432400636375 0.0677991603466532
66.8741434905678 -0.0172782740956245
66.9050469174981 0.0137238115349483
66.9359503444284 -0.0758017256187724
66.9668537713587 0.0936094001574999
66.997757198289 -0.210185668279091
67.0286606252193 0.276205926214311
67.0595640521497 0.0170698979234203
67.09046747908 0.141870532562523
67.1213709060103 0.110429258703046
67.1522743329406 0.217388933487848
67.1831777598709 -0.0417147287973556
67.2140811868012 0.132225414704577
67.2449846137315 -0.0509692074349273
67.2758880406618 -0.21183430950158
67.3067914675921 0.171951537076045
67.3376948945224 0.225388332297949
67.3685983214527 -0.00688106669301192
67.399501748383 0.0688933401031644
67.4304051753134 -0.163359875884953
67.4613086022437 0.135644999628352
67.492212029174 0.305193680928793
67.5231154561043 0.162250453730656
67.5540188830346 0.233601032319653
67.5849223099649 0.00585255955293107
67.6158257368952 0.112933606859057
67.6467291638255 0.242344174238035
67.6776325907558 0.139619975975577
67.7085360176861 0.144046726357398
67.7394394446164 -0.021161288902217
67.7703428715467 0.206495930196732
67.8012462984771 0.166304097939961
67.8321497254074 -0.0345939285296746
67.8630531523377 0.117194707930683
67.893956579268 -0.18636570696468
67.9248600061983 0.193117683927092
67.9557634331286 -0.00774797653685777
67.9866668600589 -0.172891259785099
68.0175702869892 0.121794977039508
68.0484737139195 0.135239305365539
68.0793771408498 0.028156010907276
68.1102805677801 -0.101240620620993
68.1411839947104 0.126513696495017
68.1720874216408 0.0730261051124481
68.2029908485711 -0.0429533947686993
68.2338942755014 0.229468053994432
68.2647977024317 -0.0606024057410153
68.295701129362 -0.0113790596893262
68.3266045562923 0.113745235006641
68.3575079832226 0.0379847640611741
68.3884114101529 0.180982384617128
68.4193148370832 -0.00636904618264023
68.4502182640135 0.194680471661872
68.4811216909438 -0.0730119189921954
68.5120251178741 0.217339496140873
68.5429285448045 0.0568061456325069
68.5738319717348 0.123959458054133
68.6047353986651 0.253620861977182
68.6356388255954 0.182397500258794
68.6665422525257 -0.0897106271010282
68.697445679456 0.026582194183427
68.7283491063863 0.058061678397876
68.7592525333166 0.0538349683994612
68.7901559602469 -0.0664550786689615
68.8210593871772 -0.0751298913788183
68.8519628141075 0.0903105302698881
68.8828662410378 0.0548661862771596
68.9137696679682 0.0819299337858528
68.9446730948985 0.278644629938825
68.9755765218288 0.238760274736076
69.0064799487591 0.0560268681776055
69.0373833756894 -0.189198446879444
69.0682868026197 0.0521914724220718
69.09919022955 0.088232340367866
69.1300936564803 -0.0498258430420604
69.1609970834106 -0.0851973635219938
69.1919005103409 0.178546350356636
69.2228039372712 0.116405298593831
69.2537073642015 0.308736624046733
69.2846107911319 0.121611755286771
69.3155142180622 -0.0922907362574827
69.3464176449925 0.0866720065568281
69.3773210719228 -0.176321444841726
69.4082244988531 -0.0823693017030909
69.4391279257834 0.123198075794106
69.4700313527137 0.168059259078442
69.500934779644 0.0611428195784836
69.5318382065743 -0.139515528420053
69.5627416335046 -0.125880070631453
69.5936450604349 0.0574063358014252
69.6245484873652 0.00409369087858202
69.6554519142956 0.0847177088857318
69.6863553412259 0.147492675537161
69.7172587681562 0.0718828765471544
69.7481621950865 0.0721740262014263
69.7790656220168 -0.08377673264288
69.8099690489471 0.0192091714428075
69.8408724758774 -0.159046832970084
69.8717759028077 0.332348111261304
69.902679329738 0.0558940041369693
69.9335827566683 0.114269417085485
69.9644861835986 0.0431886358211369
69.9953896105289 -0.0546697682275026
70.0262930374593 0.0439084906538492
70.0571964643896 -0.116433730391948
70.0880998913199 -0.200875002793465
70.1190033182502 0.118844828514892
70.1499067451805 0.242144179896099
70.1808101721108 0.128844479921585
70.2117135990411 0.265552871448493
70.2426170259714 -0.128980645523177
70.2735204529017 0.19970821472086
70.304423879832 0.157869452180603
70.3353273067623 0.102645923998913
70.3662307336926 0.042966201604357
70.397134160623 0.188651713568366
70.4280375875533 0.0352381741766541
70.4589410144836 0.0737970120006493
70.4898444414139 0.237363941326066
70.5207478683442 0.200046105010047
70.5516512952745 0.40380778876688
70.5825547222048 0.138827564025132
70.6134581491351 0.280105430784808
70.6443615760654 0.0687128176173317
70.6752650029957 -0.0132074183344351
70.706168429926 0.020951865786647
70.7370718568563 0.139940669980581
70.7679752837867 0.0491161371045061
70.798878710717 0.19044255287271
70.8297821376473 0.389812774428052
70.8606855645776 0.129369658913385
70.8915889915079 -0.242672507957002
70.9224924184382 -0.0209565833259688
70.9533958453685 -0.12512542433637
70.9842992722988 -0.0417861738453498
71.0152026992291 -0.0655816889957661
71.0461061261594 0.138309458783812
71.0770095530897 0.0475658409219548
71.10791298002 0.0550446002758038
71.1388164069504 0.0982457368453611
71.1697198338807 0.0209192506306248
71.200623260811 0.425743713060168
71.2315266877413 -0.0221023044374382
71.2624301146716 0.119345483852091
71.2933335416019 0.211694220785899
71.3242369685322 0.0406581920782711
71.3551403954625 0.0928445405863512
71.3860438223928 -0.0826395908327191
71.4169472493231 0.299920083535348
71.4478506762534 0.137844992261978
71.4787541031837 0.239170849632887
71.5096575301141 0.0637190842195032
71.5405609570444 0.187382553164684
71.5714643839747 0.311054113611287
71.602367810905 0.26955519413074
71.6332712378353 0.1700286518659
71.6641746647656 -0.0321683703260893
71.6950780916959 -0.216500158159514
71.7259815186262 0.0363081303852644
71.7568849455565 0.0748387961457508
71.7877883724868 0.104448981979087
71.8186917994171 -0.0891470264004406
71.8495952263474 0.221729342435738
71.8804986532778 0.362970945630483
71.9114020802081 0.0756492117552199
71.9423055071384 0.176728426524237
71.9732089340687 0.0010300185089589
72.004112360999 0.128911130566532
72.0350157879293 0.145193191268386
72.0659192148596 0.0588047720430875
72.0968226417899 0.124210158604926
72.1277260687202 -0.149662077617528
72.1586294956505 0.0987952062328672
72.1895329225808 0.0481534387275433
72.2204363495111 0.0421626198664962
72.2513397764415 0.397787035364014
72.2822432033718 0.0971695423629537
72.3131466303021 0.283167283720458
72.3440500572324 -0.0352911691349025
72.3749534841627 0.271258469511159
72.405856911093 0.283173342515786
72.4367603380233 0.214739164164691
72.4676637649536 0.28917022017216
72.4985671918839 0.0823593676810512
72.5294706188142 -0.11105053616578
72.5603740457445 -0.000880919939759472
72.5912774726748 0.207511073501968
72.6221808996052 0.139125444159403
72.6530843265355 0.0261050491754027
72.6839877534658 -0.301192968592891
72.7148911803961 0.0233028194259512
72.7457946073264 0.182628127517645
72.7766980342567 0.0651758128250437
72.807601461187 0.237910161062437
72.8385048881173 0.0490454579441097
72.8694083150476 0.186081703470061
72.9003117419779 0.14901889764029
72.9312151689082 0.0449998975976555
72.9621185958385 0.289203274770728
72.9930220227689 -0.0201566851262056
73.0239254496992 0.00531287504971001
73.0548288766295 -0.00938804470152377
73.0857323035598 -0.0285451586656214
73.1166357304901 0.15319867601456
73.1475391574204 0.0358434593390191
73.1784425843507 -0.0502536658350996
73.209346011281 0.350264443349346
73.2402494382113 0.00525492974949948
73.2711528651416 0.262932079079646
73.3020562920719 -0.198132680088786
73.3329597190022 0.211346366529917
73.3638631459326 0.0940477903643284
73.3947665728629 0.191043019985876
73.4256699997932 -0.0735608017482976
73.4565734267235 0.166307753733234
73.4874768536538 0.116005829287618
73.5183802805841 0.0657119963434232
73.5492837075144 -0.109573745099349
73.5801871344447 0.282112890673583
73.611090561375 0.0577361893765111
73.6419939883053 0.27086757958086
73.6728974152356 0.149185632715201
73.7038008421659 -0.00820250836332015
73.7347042690963 0.0219174420595785
73.7656076960266 0.09222405541247
73.7965111229569 0.0420030459810707
73.8274145498872 -0.0796384433774788
73.8583179768175 0.0889067301939637
73.8892214037478 -0.0728971475903144
73.9201248306781 0.0376284946982581
73.9510282576084 -0.0884449143688917
73.9819316845387 0.02656119663681
74.012835111469 0.114789684858218
74.0437385383993 0.0824905502953337
74.0746419653296 -0.2087290641947
74.10554539226 0.0268451271024022
74.1364488191903 0.307070267043782
74.1673522461206 0.0114106413437272
74.1982556730509 0.0996876785736651
74.2291590999812 0.134401378733596
74.2600625269115 0.227158884680664
74.2909659538418 0.016353053557725
74.3218693807721 -0.0114089717780788
74.3527728077024 0.0411942372446799
74.3836762346327 0.080412680626007
74.414579661563 0.0616035012230389
74.4454830884933 0.109766699035779
74.4763865154237 0.202580845492797
74.507289942354 0.0230816548798085
74.5381933692843 0.20966198433967
74.5690967962146 0.106071833872383
74.6000002231449 0.0248112034779453
74.6309036500752 0.0640943788706432
74.6618070770055 0.228385645764764
74.6927105039358 0.10697071844602
74.7236139308661 0.0525281683429819
74.7545173577964 0.261486566884224
74.7854207847267 0.11331019978403
74.816324211657 -0.0973580758147419
74.8472276385874 -0.151768259912092
74.8781310655177 0.0745960291753613
74.909034492448 -0.145460161664334
74.9399379193783 -0.0396154038597514
74.9708413463086 0.14213030258911
75.0017447732389 -0.144865899460608
