'Id: "" Comment: "" Operator: "Lab Manager" Anode: "Cu" Scantype: "Coupled TwoTheta/Theta" TimePerStep: "224" 
25 -0.165840853758988
25.0309034269303 0.127285039392355
25.0618068538606 0.107919104739054
25.0927102807909 0.0840970565668222
25.1236137077212 -0.185252533695768
25.1545171346515 -0.141987382572513
25.1854205615819 0.0128930836032408
25.2163239885122 0.0159960076886358
25.2472274154425 0.260178532540815
25.2781308423728 0.254369229588349
25.3090342693031 0.226246670259811
25.3399376962334 0.211525140269485
25.3708411231637 -0.142473931811201
25.401744550094 0.124070882589185
25.4326479770243 0.216516726327781
25.4635514039546 0.179506456547449
25.4944548308849 0.316611501819614
25.5253582578152 0.337653290715706
25.5562616847456 0.0372746803785819
25.5871651116759 0.3038685279511
25.6180685386062 -0.32238659513817
25.6489719655365 0.131723596825059
25.6798753924668 0.0411991038407855
25.7107788193971 0.0622899259090097
25.7416822463274 -0.0907182226845524
25.7725856732577 0.180388943774384
25.803489100188 -0.356531431857039
25.8343925271183 0.00834207899260697
25.8652959540486 -0.0151690951052474
25.8961993809789 -0.270814954150604
25.9271028079093 0.111940216142252
25.9580062348396 -0.0990464413695351
25.9889096617699 0.30604650188546
26.0198130887002 -0.0924238112356184
26.0507165156305 0.0225069049815172
26.0816199425608 -0.13487563517742
26.1125233694911 -0.095821431712432
26.1434267964214 0.0369909439479121
26.1743302233517 0.00909720608932574
26.205233650282 0.293711640426094
26.2361370772123 0.154227104101077
26.2670405041426 0.0415364542571286
26.297943931073 0.000282548037107588
26.3288473580033 -0.161498900273273
26.3597507849336 0.199049252183133
26.3906542118639 0.224784148263462
26.4215576387942 -0.191437069175137
26.4524610657245 0.137885599867334
26.4833644926548 -0.0818907017519832
26.5142679195851 0.0197697402526256
26.5451713465154 0.331259783024019
26.5760747734457 0.267757997990769
26.606978200376 -0.322521329132841
26.6378816273063 0.243457515938904
26.6687850542367 -0.0968054667939935
26.699688481167 -0.120095991617251
26.7305919080973 0.124478798611991
26.7614953350276 0.0208474753222996
26.7923987619579 -0.288132818629177
26.8233021888882 -0.00335494038529749
26.8542056158185 0.214466824339651
26.8851090427488 0.289439618402811
26.9160124696791 0.0385277275184706
26.9469158966094 -0.0516617054562296
26.9778193235397 0.152799890907285
27.00872275047 0.214412516609009
27.0396261774004 -0.0855738283510528
27.0705296043307 0.0385551417413836
27.101433031261 0.22072799831489
27.1323364581913 -0.0256624014876765
27.1632398851216 -0.0443660576663163
27.1941433120519 0.124438458350399
27.2250467389822 -0.233534567723244
27.2559501659125 0.0245720069698967
27.2868535928428 0.0371510395726782
27.3177570197731 0.10777395865653
27.3486604467034 0.245369335650023
27.3795638736337 -0.0098842580182712
27.4104673005641 0.0875488919373604
27.4413707274944 0.350168785516918
27.4722741544247 0.121725422720405
27.503177581355 0.272754517833532
27.5340810082853 0.178256070856301
27.5649844352156 -0.0456984896398609
27.5958878621459 -0.0866091636549529
27.6267912890762 0.100166905953882
27.6576947160065 0.117308290615214
27.6885981429368 0.107672133186189
27.7195015698671 0.348044147952518
27.7504049967974 0.159852906342776
27.7813084237278 0.168098408356959
27.8122118506581 0.176352082566497
27.8431152775884 0.23818535754282
27.8740187045187 0.125919661857356
27.904922131449 0.495804995510103
27.9358255583793 0.454984215643922
27.9667289853096 0.199885893687381
27.9976324122399 0.306402886783339
28.0285358391702 0.34149948064608
28.0594392661005 0.238211389561319
28.0903426930308 0.630467184957629
28.1212461199611 0.228088295406437
28.1521495468915 0.638217578050599
28.1830529738218 0.499247890032976
28.2139564007521 0.47189351706785
28.2448598276824 0.587404459155223
28.2757632546127 0.810066430580807
28.306666681543 0.604165145630319
28.3375701084733 0.451843461446614
28.3684735354036 0.687922806601123
28.3993769623339 0.74543889537956
28.4302803892642 0.963677442067636
28.4611838161945 0.641745589522496
28.4920872431248 0.632321909172711
28.5229906700552 0.837192115303998
28.5538940969855 1.05992763648778
28.5847975239158 0.796064187009779
28.6157009508461 0.983101766869988
28.6466043777764 1.13889751892555
28.6775078047067 0.98666572889076
28.708411231637 1.28979925390846
28.7393146585673 1.39204809397867
28.7702180854976 1.29787653481565
28.8011215124279 1.04746314784799
28.8320249393582 1.33723650450426
28.8629283662885 0.97969660478446
28.8938317932189 1.45252202011715
28.9247352201492 1.52356989335949
28.9556386470795 1.27319736736861
28.9865420740098 1.5496187278588
29.0174455009401 1.38408397483006
29.0483489278704 1.36141453685381
29.0792523548007 0.856610413930069
29.110155781731 1.46342160605882
29.1410592086613 1.21756239895436
29.1719626355916 1.28867564975954
29.2028660625219 1.30176135847436
29.2337694894522 1.52914095367025
29.2646729163826 1.12706443534721
29.2955763433129 1.34106751779095
29.3264797702432 1.33632877243005
29.3573831971735 1.36731248497879
29.3882866241038 1.25544722686574
29.4191900510341 1.19716156951948
29.4500934779644 1.19245551294
29.4809969048947 1.26811477141302
29.511900331825 1.17413934493854
29.5428037587553 1.2096363763737
29.5737071856856 1.1871058657185
29.6046106126159 1.13779781297294
29.6355140395463 0.936712218137021
29.6664174664766 0.874027652639316
29.6973208934069 1.0524226879084
29.7282243203372 0.985290181087115
29.7591277472675 1.23513013217548
29.7900311741978 1.02515682688776
29.8209346011281 0.859834550938265
29.8518380280584 1.22130616146984
29.8827414549887 0.819393087053905
29.913644881919 0.439809613404757
29.9445483088493 0.895055740522394
29.9754517357796 0.988702896978244
30.00635516271 1.29217965420088
30.0372585896403 1.09120029790458
30.0681620165706 0.702729113803639
30.0990654435009 0.970516101898053
30.1299688704312 0.796346976473536
30.1608722973615 0.640043166101519
30.1917757242918 0.782854670781998
30.2226791512221 0.782817204800692
30.2535825781524 0.555109339586169
30.2844860050827 0.907766789424144
30.315389432013 0.81846812574319
30.3462928589433 0.421141919971877
30.3771962858737 0.845252457824489
30.408099712804 0.925621167872458
30.4390031397343 0.836355192972925
30.4699065666646 0.881025961697318
30.5008099935949 0.823026331188498
30.5317134205252 0.840927730017888
30.5626168474555 1.13562301532835
30.5935202743858 0.707112187119877
30.6244237013161 1.26521667396391
30.6553271282464 0.912615047289004
30.6862305551767 0.7341287356666
30.717133982107 0.948507739096695
30.7480374090374 0.966466343293573
30.7789408359677 0.823718833971522
30.809844262898 1.02026521113054
30.8407476898283 1.0025340461992
30.8716511167586 1.25713248203464
30.9025545436889 0.868881947208298
30.9334579706192 1.1413538702916
30.9643613975495 1.12811967985596
30.9952648244798 1.46757223304426
31.0261682514101 1.15971152985648
31.0570716783404 1.38310899886405
31.0879751052707 1.16008606863841
31.1188785322011 1.09332131060813
31.1497819591314 1.26317186763034
31.1806853860617 1.51338773970506
31.211588812992 1.21896892683226
31.2424922399223 1.53616542901197
31.2733956668526 1.51408438910132
31.3042990937829 1.48308294995746
31.3352025207132 1.25119682586609
31.3661059476435 1.06842601682722
31.3970093745738 1.53298480855514
31.4279128015041 1.59576605819269
31.4588162284344 1.64069833716846
31.4897196553648 1.40885307405387
31.5206230822951 1.14130169742035
31.5515265092254 1.50322277869647
31.5824299361557 1.10175917502509
31.613333363086 1.41012517212049
31.6442367900163 1.37921362712553
31.6751402169466 1.57598882575451
31.7060436438769 1.85759362515026
31.7369470708072 1.74634945388423
31.7678504977375 1.46547059767069
31.7987539246678 1.49263562793823
31.8296573515981 1.84123740182969
31.8605607785285 1.52466877648794
31.8914642054588 1.44471546619868
31.9223676323891 1.73977032810478
31.9532710593194 2.15983336220624
31.9841744862497 1.58883313993162
32.01507791318 1.9106982327095
32.0459813401103 1.63882149768274
32.0768847670406 1.88034579199419
32.1077881939709 1.71116397278671
32.1386916209012 1.95270461148887
32.1695950478315 2.06032485095781
32.2004984747618 2.49831040547925
32.2314019016922 1.83362556076748
32.2623053286225 2.03502031682249
32.2932087555528 2.47303038793
32.3241121824831 2.51372720266143
32.3550156094134 2.54550361815965
32.3859190363437 1.84514534871037
32.416822463274 2.40372382288502
32.4477258902043 2.10516761211216
32.4786293171346 2.27090528782037
32.5095327440649 2.65093685000965
32.5404361709952 2.14704801296572
32.5713395979255 2.66548877668857
32.6022430248559 2.25536628403535
32.6331464517862 2.1532876778632
32.6640498787165 2.34139581531497
32.6949533056468 2.35540498210496
32.7258567325771 1.84263660680458
32.7567601595074 2.31201926084243
32.7876635864377 2.19658865850419
32.818567013368 2.29991622836132
32.8494704402983 2.14878768469951
32.8803738672286 2.4217744560902
32.9112772941589 2.0831622568191
32.9421807210892 2.3561653726005
32.9730841480196 2.35239094629155
33.0039875749499 2.21469612074937
33.0348910018802 2.16629518168827
33.0657944288105 2.4705809862511
33.0966978557408 2.23916067729499
33.1276012826711 1.91846282624852
33.1585047096014 2.07545171882598
33.1894081365317 1.99584164074166
33.220311563462 1.87159687770983
33.2512149903923 1.77414600115907
33.2821184173226 2.06509615394653
33.3130218442529 2.36498305035791
33.3439252711833 1.75862811896465
33.3748286981136 2.29513850262388
33.4057321250439 1.8539784870499
33.4366355519742 2.02443378652842
33.4675389789045 1.70382582963086
33.4984424058348 1.75822604492866
33.5293458327651 1.6920987181361
33.5602492596954 1.31794384925319
33.5911526866257 1.74290429542277
33.622056113556 1.2928729137877
33.6529595404863 1.71784970434799
33.6838629674166 1.40176323853221
33.714766394347 1.7999706591975
33.7456698212773 1.53300768062957
33.7765732482076 1.30176715997129
33.8074766751379 1.73124909722264
33.8383801020682 1.18752492095507
33.8692835289985 1.47416605973999
33.9001869559288 1.53760108500598
33.9310903828591 1.80193713961018
33.9619938097894 1.66449565212403
33.9928972367197 1.14759805111895
34.02380066365 1.37624433659493
34.0547040905803 1.32811307998056
34.0856075175107 1.40052570984726
34.116510944441 1.64705365476645
34.1474143713713 1.331089771881
34.1783177983016 1.29638406119091
34.2092212252319 1.20365080841045
34.2401246521622 1.15110429925393
34.2710280790925 1.16106596229276
34.3019315060228 1.0281786546698
34.3328349329531 1.3015495192422
34.3637383598834 1.35171427029566
34.3946417868137 1.70545862211591
34.425545213744 1.63063971756009
34.4564486406744 1.46654327091391
34.4873520676047 1.39620499646309
34.518255494535 1.39730346563619
34.5491589214653 1.87162439271893
34.5800623483956 1.62273920628274
34.6109657753259 1.81136219204191
34.6418692022562 1.49552906428215
34.6727726291865 1.60827553728917
34.7036760561168 1.72995875392012
34.7345794830471 1.63290014274642
34.7654829099774 1.41531398948237
34.7963863369077 1.86737886555652
34.8272897638381 1.94891619954032
34.8581931907684 1.71796170571948
34.8890966176987 1.93344395552256
34.920000044629 1.59089866323528
34.9509034715593 2.09211154314336
34.9818068984896 1.80761830953251
35.0127103254199 1.88474039097415
35.0436137523502 2.0422277874683
35.0745171792805 2.11490192758637
35.1054206062108 2.19651281132837
35.1363240331411 2.07723901012286
35.1672274600714 2.57404480968414
35.1981308870018 2.68246592429792
35.2290343139321 2.48285949682134
35.2599377408624 3.0689755272544
35.2908411677927 2.90063544416853
35.321744594723 3.1117678189923
35.3526480216533 2.93005122315429
35.3835514485836 3.67691422808306
35.4144548755139 3.43717826235004
35.4453583024442 3.3447718973838
35.4762617293745 3.84612370461292
35.5071651563048 3.59301939832311
35.5380685832351 3.72385183565723
35.5689720101655 4.03772815947242
35.5998754370958 3.73107694119725
35.6307788640261 4.14318389511743
35.6616822909564 4.2651204498044
35.6925857178867 4.29331517668672
35.723489144817 4.42866093290726
35.7543925717473 4.58633628989458
35.7852959986776 4.62794839050582
35.8161994256079 4.584747234741
35.8471028525382 5.02369710831438
35.8780062794685 4.95819086836884
35.9089097063988 4.91501422919008
35.9398131333292 5.36738147649239
35.9707165602595 4.9938640388472
36.0016199871898 4.9507119162545
36.0325234141201 5.36738939442859
36.0634268410504 5.4537179019409
36.0943302679807 5.28559029593427
36.125233694911 5.69782800498014
36.1561371218413 4.92257388622137
36.1870405487716 5.45089936822938
36.2179439757019 5.05066159386131
36.2488474026322 5.32453913454575
36.2797508295625 4.88413913313982
36.3106542564929 4.76517587535783
36.3415576834232 5.03014936119976
36.3724611103535 4.6835238763799
36.4033645372838 4.53779942089826
36.4342679642141 4.37869028046911
36.4651713911444 3.50530359794961
36.4960748180747 4.06496080191117
36.526978245005 4.25409046378238
36.5578816719353 3.88965686927751
36.5887850988656 3.74844573268229
36.6196885257959 3.37509991113956
36.6505919527262 3.40801226179219
36.6814953796566 3.14182564178303
36.7123988065869 2.84886147968351
36.7433022335172 2.72108406120792
36.7742056604475 2.82992195778482
36.8051090873778 2.69769659798566
36.8360125143081 2.55208655323899
36.8669159412384 2.43327039497339
36.8978193681687 2.62696240890315
36.928722795099 2.21798402359969
36.9596262220293 2.12151381049159
36.9905296489596 1.64112319815027
37.0214330758899 2.17859790086145
37.0523365028203 1.75625934719655
37.0832399297506 1.53035753715559
37.1141433566809 1.49642818502426
37.1450467836112 1.72143557651686
37.1759502105415 1.3571654259191
37.2068536374718 1.36343916180242
37.2377570644021 1.52597106988108
37.2686604913324 1.10368972158368
37.2995639182627 1.54302368833877
37.330467345193 1.14754439871779
37.3613707721233 0.952966138435022
37.3922741990536 1.16911033606189
37.423177625984 1.22008413445555
37.4540810529143 1.25767324790171
37.4849844798446 0.768484819257504
37.5158879067749 0.618590277094371
37.5467913337052 1.04459676426945
37.5776947606355 0.778647137925597
37.6085981875658 1.2939556837771
37.6395016144961 0.867308116109676
37.6704050414264 0.614775863494748
37.7013084683567 0.728323211646605
37.732211895287 1.12312873199382
37.7631153222173 0.651870995964956
37.7940187491477 0.720800003560021
37.824922176078 0.544201469064728
37.8558256030083 0.720289678193361
37.8867290299386 0.856207488088779
37.9176324568689 0.576954898750981
37.9485358837992 0.659317624465682
37.9794393107295 0.447045665232879
38.0103427376598 0.913353306766862
38.0412461645901 0.518061977639056
38.0721495915204 0.810278820706606
38.1030530184507 0.624825264540941
38.133956445381 0.792058451999202
38.1648598723114 0.709299811652819
38.1957632992417 0.613156486358934
38.226666726172 0.369699904688976
38.2575701531023 0.541430066642945
38.2884735800326 0.561382686506555
38.3193770069629 0.572414907136948
38.3502804338932 0.873633871391269
38.3811838608235 0.70164672212666
38.4120872877538 0.668060602200264
38.4429907146841 0.478232654469222
38.4738941416144 0.489305736076393
38.5047975685447 0.317351275593206
38.5357009954751 0.24361927301966
38.5666044224054 0.486859728355754
38.5975078493357 0.743501213030062
38.628411276266 0.357293727042582
38.6593147031963 0.466630127536171
38.6902181301266 0.964367557367974
38.7211215570569 0.292470302252275
38.7520249839872 0.607188362189073
38.7829284109175 0.587093165749799
38.8138318378478 0.656291855791595
38.8447352647781 0.62728443231446
38.8756386917084 0.437570895318395
38.9065421186388 0.533579816231971
38.9374455455691 0.388525480769474
38.9683489724994 0.359550746073762
38.9992523994297 0.236834183573404
39.03015582636 0.578411507554118
39.0610592532903 0.353032718015899
39.0919626802206 0.114269243530179
39.1228661071509 0.379978226954101
39.1537695340812 0.422481096859092
39.1846729610115 0.255170710388011
39.2155763879418 0.324475638969426
39.2464798148721 0.237538739746199
39.2773832418025 0.35596715557547
39.3082866687328 0.331546600742953
39.3391900956631 0.423205646677219
39.3700935225934 0.0907657219496993
39.4009969495237 0.45029825513182
39.431900376454 0.30537467479501
39.4628038033843 -0.0136478762035868
39.4937072303146 0.0512663164217431
39.5246106572449 0.303688681242429
39.5555140841752 0.0873692182584698
39.5864175111055 0.246057927469866
39.6173209380358 0.159219094590902
39.6482243649662 0.31792414819301
39.6791277918965 0.222173088276188
39.7100312188268 0.0550016291261475
39.7409346457571 0.182481199314321
39.7718380726874 0.0822903702692788
39.8027414996177 0.0580005705624496
39.833644926548 0.341754657336689
39.8645483534783 -0.0173402265508589
39.8954517804086 0.261965918899806
39.9263552073389 -0.0926483348827443
39.9572586342692 -0.0811829878985115
39.9881620611995 0.00618338842393484
40.0190654881299 -0.0225134916296916
40.0499689150602 0.0425478005120361
40.0808723419905 -0.142382735150881
40.1117757689208 -0.0103408129041558
40.1426791958511 -0.0970407184620754
40.1735826227814 -0.15248245182464
40.2044860497117 0.144762558436723
40.235389476642 0.0848728837505837
40.2662929035723 0.0964199526883709
40.2971963305026 0.295475193821514
40.3280997574329 -0.0143899642785579
40.3590031843632 -0.105496950183277
40.3899066112936 0.0310828075359346
40.4208100382239 -0.0912578339780721
40.4517134651542 0.0899811252747051
40.4826168920845 -0.255557457562877
40.5135203190148 -0.0475164396336725
40.5444237459451 -0.000181535223401141
40.5753271728754 -0.100159887189201
40.6062305998057 0.0320127901832103
40.637134026736 -0.018842074534736
40.6680374536663 0.0553112329426737
40.6989408805966 0.120544141186866
40.7298443075269 -0.126714778373586
40.7607477344573 0.0769273314041738
40.7916511613876 0.00379189909157684
40.8225545883179 0.024414638974334
40.8534580152482 0.147724122481018
40.8843614421785 0.0210417781830579
40.9152648691088 0.162224748937596
40.9461682960391 -0.0180126795410827
40.9770717229694 -0.00627765011011849
41.0079751498997 0.1929655515162
41.03887857683 -0.246175931804983
41.0697820037603 -0.0201306715022387
41.1006854306906 0.152351332424431
41.131588857621 0.0257343656893143
41.1624922845513 -0.0785530002790171
41.1933957114816 0.138596377376577
41.2242991384119 -0.0103175013439021
41.2552025653422 -0.177080350726169
41.2861059922725 0.0534864006583495
41.3170094192028 -0.126652961476063
41.3479128461331 0.233394420013451
41.3788162730634 -0.0717285977302513
41.4097196999937 -0.0509505861357393
41.440623126924 0.201978454796985
41.4715265538543 -0.0227629035035077
41.5024299807847 -0.122496089608645
41.533333407715 -0.0615068178041405
41.5642368346453 -0.156759373804281
41.5951402615756 -0.0570049959552508
41.6260436885059 0.167757554089134
41.6569471154362 -0.00925743795683953
41.6878505423665 0.0414143136211136
41.7187539692968 0.118879951680138
41.7496573962271 0.0624251905059445
41.7805608231574 -0.0743785413300362
41.8114642500877 0.199540184743625
41.842367677018 -0.0220686312730729
41.8732711039484 0.0911521534770134
41.9041745308787 0.016881110422454
41.935077957809 0.380118239563251
41.9659813847393 0.12282782661369
41.9968848116696 -0.054097271283374
42.0277882385999 -0.00779991127079605
42.0586916655302 -0.0239943790628629
42.0895950924605 -0.125002103231004
42.1204985193908 0.0195340590819262
42.1514019463211 0.00782839359021104
42.1823053732514 0.371130900293852
42.2132088001817 0.216584436335705
42.2441122271121 0.0843675731443421
42.2750156540424 -0.00766254642309327
42.3059190809727 0.159244077633398
42.336822507903 0.0895517310281013
42.3677259348333 0.0779032709038745
42.3986293617636 -0.00516558845356752
42.4295327886939 -0.0971548470442265
42.4604362156242 0.0430069237033264
42.4913396425545 -0.120394561925192
42.5222430694848 0.109069267498787
42.5531464964151 -0.00967301659616382
42.5840499233454 -0.0435856999243303
42.6149533502758 0.114474074657144
42.6458567772061 0.0850420214339724
42.6767602041364 0.113653854691873
42.7076636310667 0.267273860145128
42.738567057997 -0.159455105063406
42.7694704849273 0.230788387637703
42.8003739118576 -0.0575313760372618
42.8312773387879 0.359514175340271
42.8621807657182 -0.259146386801124
42.8930841926485 0.144522651824263
42.9239876195788 0.226771291216435
42.9548910465091 0.349206674232533
42.9857944734395 0.382364515158272
43.0166979003698 0.0762448139936538
43.0476013273001 -0.0736167149756106
43.0785047542304 0.414922785393339
43.1094081811607 0.180256172243356
43.140311608091 0.146490588431589
43.1712150350213 0.443090319672318
43.2021184619516 0.12809108025126
43.2330218888819 0.210421441596986
43.2639253158122 0.453474260852353
43.2948287427425 -0.0266790334112104
43.3257321696728 0.533354415949154
43.3566355966032 0.521967466076303
43.3875390235335 0.19362440268452
43.4184424504638 0.0661823686309511
43.4493458773941 0.0280342210584505
43.4802493043244 0.387215674252735
43.5111527312547 0.581226728213802
43.542056158185 -0.0685040456297736
43.5729595851153 0.321951924150576
43.6038630120456 0.386523208983425
43.6347664389759 0.710031237440201
43.6656698659062 0.198726009520903
43.6965732928365 0.138321810939819
43.7274767197669 0.510961498839802
43.7583801466972 0.548787930363715
43.7892835736275 0.582158248368697
43.8201870005578 0.361072452854747
43.8510904274881 0.680173400964725
43.8819938544184 0.66446109269863
43.9128972813487 0.318399813770748
43.943800708279 0.525918135609649
43.9747041352093 0.630766058215335
44.0056075621396 0.842765010159233
44.0365109890699 0.791379277155631
44.0674144160002 0.860537430633096
44.0983178429306 0.938632327734489
44.1292212698609 0.985485397031239
44.1601246967912 0.697525209951913
44.1910281237215 1.0479660522108
44.2219315506518 0.532343638093616
44.2528349775821 1.11047939617179
44.2837384045124 0.742194755016742
44.3146418314427 1.23106114319991
44.345545258373 0.943149989292717
44.3764486853033 0.851675579009452
44.4073521122336 1.09949505520726
44.4382555391639 0.900894132171845
44.4691589660943 0.630872809903219
44.5000623930246 0.807288231258519
44.5309658199549 0.689068967666317
44.5618692468852 0.932465019126613
44.5927726738155 0.885690671353694
44.6236761007458 0.700531638633272
44.6545795276761 0.63591649239392
44.6854829546064 0.839166661207067
44.7163863815367 0.618317859358427
44.747289808467 0.415334372562285
44.7781932353973 0.739144772247212
44.8090966623276 0.848677629841781
44.840000089258 0.67250437391742
44.8709035161883 0.661517861616985
44.9018069431186 0.378218092940476
44.9327103700489 0.545819353602182
44.9636137969792 0.351821643602099
44.9945172239095 0.698010677225943
45.0254206508398 0.544207883045143
45.0563240777701 0.560056118202557
45.0872275047004 0.0625196684124667
45.1181309316307 0.399812819389161
45.149034358561 0.491578428275496
45.1799377854913 0.203887923642903
45.2108412124217 0.358169876919949
45.241744639352 0.231210002392351
45.2726480662823 0.42568687148868
45.3035514932126 -0.0048280872196349
45.3344549201429 0.395022269124548
45.3653583470732 0.303809369092658
45.3962617740035 0.225997498398979
45.4271652009338 0.121408085614943
45.4580686278641 0.22664827359769
45.4889720547944 0.220289490918651
45.5198754817247 -0.094096833850748
45.550778908655 -0.145082129281934
45.5816823355854 0.0807264617679504
45.6125857625157 0.261900367870331
45.643489189446 -0.150667553831931
45.6743926163763 0.226951268089733
45.7052960433066 0.0599354050638965
45.7361994702369 0.294713428519128
45.7671028971672 -0.0017503758302837
45.7980063240975 0.0589368491585169
45.8289097510278 0.0973108177712438
45.8598131779581 0.180335815722184
45.8907166048884 0.0312261287256215
45.9216200318187 0.100874613924416
45.9525234587491 0.29999555703285
45.9834268856794 -0.0321253276633602
46.0143303126097 -0.0963808973070703
46.04523373954 0.116157419530288
46.0761371664703 -0.238260377151283
46.1070405934006 -0.0480271444946432
46.1379440203309 -0.156892882499791
46.1688474472612 0.354785265976133
46.1997508741915 0.0137930152188392
46.2306543011218 -0.00129820620024024
46.2615577280521 -0.0833455411382511
46.2924611549824 -0.018063275309478
46.3233645819128 0.181155734143222
46.3542680088431 0.112525772934135
46.3851714357734 -0.0944888732224536
46.4160748627037 -0.0247096328979728
46.446978289634 -0.124565077520993
46.4778817165643 0.0702305071941982
46.5087851434946 0.0552128355333172
46.5396885704249 0.0312747646392202
46.5705919973552 -0.117655134059521
46.6014954242855 -0.172826860562908
46.6323988512158 0.191652442271919
46.6633022781461 -0.0688600826979
46.6942057050765 -0.0704358640437919
46.7251091320068 -0.0586106160514701
46.7560125589371 0.0201870898504932
46.7869159858674 0.183814396519239
46.8178194127977 0.204592732526199
46.848722839728 0.100379240728513
46.8796262666583 -0.27168322173096
46.9105296935886 0.235726773719207
46.9414331205189 0.0199306556504455
46.9723365474492 -0.0485358616515317
47.0032399743795 -0.0143156353295826
47.0341434013098 0.189555620330577
47.0650468282402 0.125577905328953
47.0959502551705 0.0258940768083971
47.1268536821008 0.0958612776260521
47.1577571090311 -0.0573776350752206
47.1886605359614 0.258141624418861
47.2195639628917 -0.0200809438917027
47.250467389822 -0.146509625721195
47.2813708167523 -0.179180135355333
47.3122742436826 0.3461932414916
47.3431776706129 0.0233605048196006
47.3740810975432 0.0219645117715297
47.4049845244735 0.217005262347385
47.4358879514039 0.144197042261453
47.4667913783342 0.0669327086565907
47.4976948052645 0.373605118675655
47.5285982321948 0.336535700890077
47.5595016591251 0.411081598156995
47.5904050860554 0.012421381904983
47.6213085129857 0.113769337848327
47.652211939916 0.139232608844169
47.6831153668463 0.111132623463938
47.7140187937766 0.141076524564777
47.7449222207069 0.251385740718113
47.7758256476372 -0.00436829950462236
47.8067290745676 0.190778689610854
47.8376325014979 0.060040993778828
47.8685359284282 0.098954327285016
47.8994393553585 0.20930440441513
47.9303427822888 -0.050873060545114
47.9612462092191 0.0148505038328537
47.9921496361494 -0.0667391881652515
48.0230530630797 -0.0679635651108583
48.05395649001 -0.220965484146824
48.0848599169403 0.0665466467741034
48.1157633438706 0.184424092747529
48.1466667708009 0.0299882823448812
48.1775701977313 -0.0797964987195536
48.2084736246616 0.0961411781256531
48.2393770515919 0.0265513128805006
48.2702804785222 0.0507196198307032
48.3011839054525 -0.0411753295951671
48.3320873323828 0.340152178888604
48.3629907593131 0.163452145282016
48.3938941862434 0.183188855299355
48.4247976131737 0.00204088036919181
48.455701040104 0.0887582204915276
48.4866044670343 0.24691230423779
48.5175078939646 0.418467417322265
48.548411320895 0.514137845459238
48.5793147478253 0.270530731505853
48.6102181747556 0.285860361176395
48.6411216016859 0.310126734470863
48.6720250286162 -0.0138130057536001
48.7029284555465 0.0506482833601511
48.7338318824768 -0.242025112473599
48.7647353094071 -0.0212974789691378
48.7956387363374 0.0521168981592508
48.8265421632677 0.263932304625852
48.857445590198 0.261470169002094
48.8883490171283 0.134016205573692
48.9192524440587 0.100320414340645
48.950155870989 0.383597081017239
48.9810592979193 0.215989062746331
49.0119627248496 0.186782073813637
49.0428661517799 0.260261828504869
49.0737695787102 0.262321183962885
49.1046730056405 0.309031568759115
49.1355764325708 0.248607268607841
49.1664798595011 0.112298283509067
49.1973832864314 0.127783184891362
49.2282867133617 0.0182762584690126
49.259190140292 0.341813218527732
49.2900935672224 0.312679779353235
49.3209969941527 0.417483083802669
49.351900421083 0.142830274733169
49.3828038480133 0.261042780716168
49.4137072749436 0.124799173180238
49.4446107018739 0.086778023553947
49.4755141288042 0.0175150461230125
49.5064175557345 0.175938812316005
49.5373209826648 0.155799322132925
49.5682244095951 0.425846575573771
49.5991278365254 0.106616286924258
49.6300312634557 0.52846559904153
49.6609346903861 0.512823083354156
49.6918381173164 0.198081597004997
49.7227415442467 0.40566971142262
49.753644971177 0.564158855178456
49.7845483981073 0.477120456843934
49.8154518250376 0.568661659276195
49.8463552519679 0.633425319618097
49.8772586788982 0.42141143786964
49.9081621058285 -0.0182728431120314
49.9390655327588 0.390265333815937
49.9699689596891 0.13363311151069
50.0008723866194 0.32343763282937
50.0317758135498 0.535571754914834
50.0626792404801 0.618249763481368
50.0935826674104 0.410757372814685
50.1244860943407 0.301487440057644
50.155389521271 0.129725679495958
50.1862929482013 0.337436376843914
50.2171963751316 0.567476674958654
50.2480998020619 0.435918002411605
50.2790032289922 0.366867502059913
50.3099066559225 0.476396602475004
50.3408100828528 0.603791017942593
50.3717135097831 0.266907891319825
50.4026169367135 0.563961508320983
50.4335203636438 0.124416154660353
50.4644237905741 0.49737897319508
50.4953272175044 0.48642139249659
50.5262306444347 0.359400555422027
50.557134071365 0.299352176257105
50.5880374982953 0.511633397858967
50.6189409252256 0.514101363084755
50.6498443521559 0.619256071934472
50.6807477790862 0.536918952979543
50.7116512060165 0.383161434791398
50.7425546329468 0.443697803084324
50.7734580598772 0.691742343572604
50.8043614868075 0.497830770541954
50.8352649137378 0.433391655420945
50.8661683406681 0.42253214106672
50.8970717675984 0.505430798907851
50.9279751945287 0.516909057515766
50.958878621459 0.278395488319036
50.9897820483893 0.58453294846052
51.0206854753196 0.551392866511645
51.0515889022499 0.670046671043838
51.0824923291802 0.288708647771387
51.1133957561105 0.630593082408577
51.1442991830409 0.61087854638398
51.1752026099712 0.412600753983311
51.2061060369015 0.245581133777996
51.2370094638318 0.516069685768037
51.2679128907621 0.594602124239149
51.2988163176924 0.289214163477043
51.3297197446227 0.309727232053151
51.360623171553 0.678462758538899
51.3915265984833 0.323992171505717
51.4224300254136 0.549886899525032
51.4533334523439 0.762396942596848
51.4842368792742 0.425808015006876
51.5151403062046 0.258870116755115
51.5460437331349 0.172297533555854
51.5769471600652 0.16609026540909
51.6078505869955 0.302748312314826
51.6387540139258 0.52870024570163
51.6696574408561 0.553767494140933
51.7005608677864 0.270807200489878
51.7314642947167 0.764640793319892
51.762367721647 0.445982558345261
51.7932711485773 0.444296781280271
51.8241745755076 0.246190604982066
51.8550780024379 0.173092600879216
51.8859814293683 0.439288483257435
51.9168848562986 0.321563966402439
51.9477882832289 0.373490478885656
51.9786917101592 0.103996592135656
52.0095951370895 0.352368020438155
52.0404985640198 0.54717619236458
52.0714019909501 0.23306396505779
52.1023054178804 0.271638481374927
52.1332088448107 0.301292598458848
52.164112271741 0.138990602023838
52.1950156986713 0.0659824920698986
52.2259191256016 0.492982554311313
52.256822552532 0.411062217319513
52.2877259794623 0.561292909665925
52.3186294063926 0.0284960599219781
52.3495328333229 0.379635953801959
52.3804362602532 0.105784019877295
52.4113396871835 0.1399759724337
52.4422431141138 0.22774752575689
52.4731465410441 0.20392010841829
52.5040499679744 0.327422291846477
52.5349533949047 0.156289790327162
52.565856821835 0.203915461003201
52.5967602487653 0.148870732446026
52.6276636756957 0.281334176084205
52.658567102626 -0.0326227795108318
52.6894705295563 0.0953927228037728
52.7203739564866 0.102880683028018
52.7512773834169 0.186269672590477
52.7821808103472 0.296452548634005
52.8130842372775 0.0450364540157455
52.8439876642078 0.539164245878555
52.8748910911381 0.64937163850815
52.9057945180684 0.304230060475957
52.9366979449987 0.173382368924834
52.967601371929 0.180935706711923
52.9985047988594 0.17510435955151
53.0294082257897 0.0799954703007391
53.06031165272 0.49828761038818
53.0912150796503 0.251409351242406
53.1221185065806 0.343824978577702
53.1530219335109 0.114820206679781
53.1839253604412 0.443859321262929
53.2148287873715 0.15237089375572
53.2457322143018 0.159997781301009
53.2766356412321 0.328347126755937
53.3075390681624 0.545811787263365
53.3384424950928 0.263284619966149
53.3693459220231 0.253087053435716
53.4002493489534 0.27414765910064
53.4311527758837 0.228252151246632
53.462056202814 0.21361481558798
53.4929596297443 0.288271366410398
53.5238630566746 0.465614660856743
53.5547664836049 0.2813589846413
53.5856699105352 0.414075766335498
53.6165733374655 0.448586434510768
53.6474767643958 0.442926703452818
53.6783801913261 0.15156085887594
53.7092836182565 0.40931032935156
53.7401870451868 0.412603686308251
53.7710904721171 0.536440929746012
53.8019938990474 0.481714916807698
53.8328973259777 0.114497076064739
53.863800752908 0.591037407517137
53.8947041798383 0.362228768307747
53.9256076067686 0.320928301293713
53.9565110336989 0.368921720760748
53.9874144606292 0.537459026708853
54.0183178875595 0.112254504852313
54.0492213144898 0.548665298048272
54.0801247414202 0.154727120582444
54.1110281683505 0.332225686740543
54.1419315952808 0.424910996522567
54.1728350222111 0.419390192785663
54.2037384491414 0.534413275529827
54.2346418760717 0.18962310189792
54.265545303002 0.643948243318509
54.2964487299323 0.29024584264874
54.3273521568626 0.552623042745755
54.3582555837929 0.292686986466697
54.3891590107232 0.278294816668709
54.4200624376535 -0.0530534666482101
54.4509658645839 0.53971356508737
54.4818692915142 0.199453054732591
54.5127727184445 0.0600935737160251
54.5436761453748 -0.231043449390901
54.5745795723051 0.464434842554673
54.6054829992354 0.235814163838459
54.6363864261657 0.1634516573176
54.667289853096 0.153597322992096
54.6981932800263 0.152679732290519
54.7290967069566 0.281234599498584
54.7600001338869 0.347297638902004
54.7909035608172 -0.0196668637849351
54.8218069877476 0.104448234294911
54.8527104146779 0.112500075998683
54.8836138416082 0.196452947040668
54.9145172685385 -0.0722645811505638
54.9454206954688 0.217061777139275
54.9763241223991 0.381396307624469
55.0072275493294 0.027881867447876
55.0381309762597 0.0716970280380655
55.06903440319 -0.250551067747816
55.0999378301203 0.0611375800902287
55.1308412570506 0.149620114409342
55.1617446839809 0.0506108209238114
55.1926481109113 0.241788271062209
55.2235515378416 0.0177953219673874
55.2544549647719 0.333989116496496
55.2853583917022 0.485012511792386
55.3162618186325 0.109258364997919
55.3471652455628 0.157619533255951
55.3780686724931 0.147953159423623
55.4089720994234 -0.00456218507049222
55.4398755263537 0.00364492834503327
55.470778953284 0.136860213955915
55.5016823802143 0.176333671762151
55.5325858071446 0.537243873192314
55.563489234075 0.331197961103548
55.5943926610053 0.339445935495852
55.6252960879356 0.490559224940653
55.6561995148659 0.213109258009381
55.6871029417962 0.185667463273465
55.7180063687265 0.118055269304333
55.7489097956568 0.452236961816271
55.7798132225871 0.317676826523563
55.8107166495174 0.352767720569068
55.8416200764477 0.378938215381358
55.872523503378 0.293509739531861
55.9034269303083 0.645589435877718
55.9343303572387 0.216427304418931
55.965233784169 0.434594773726928
55.9961372110993 0.371520415230281
56.0270406380296 0.522739943214703
56.0579440649599 0.397181929108767
56.0888474918902 0.351989230055329
56.1197509188205 0.39609041748296
56.1506543457508 0.400021205677376
56.1815577726811 0.787888737495718
56.2124611996114 0.836478727223702
56.2433646265417 0.474362603432756
56.274268053472 0.630111794694307
56.3051714804024 0.4465834438655
56.3360749073327 0.370206122374905
56.366978334263 0.0929441159368096
56.3978817611933 0.360333138836925
56.4287851881236 0.319694619646683
56.4596886150539 0.368349986937511
56.4905920419842 0.341120669280837
56.5214954689145 0.434435238105232
56.5523988958448 0.630436550553554
56.5833023227751 0.491624606625803
56.6142057497054 0.504606549179122
56.6451091766357 0.455096663927796
56.6760126035661 0.369880665157541
56.7069160304964 0.31592283858264
56.7378194574267 0.320008898488809
56.768722884357 0.194638844876048
56.7996263112873 0.377312677744357
56.8305297382176 0.452851825665164
56.8614331651479 0.443577717209898
56.8923365920782 0.648597495235702
56.9232400190085 0.44737544545686
56.9541434459388 0.250625853587661
56.9850468728691 0.335134433913818
57.0159502997994 0.852686900721042
57.0468537267298 0.588997539723624
57.0777571536601 0.361030636635846
57.1086605805904 0.463429048600566
57.1395640075207 0.208692775617786
57.170467434451 0.221821817687503
57.2013708613813 0.511744746238288
57.2322742883116 0.274890132698718
57.2631777152419 0.189829405640215
57.2940811421722 0.399419707919925
57.3249845691025 0.430446753823563
57.3558879960328 0.358803400493984
57.3867914229631 0.34966821935976
57.4176948498935 0.474469781849463
57.4485982768238 0.353743802248808
57.4795017037541 0.590168851986366
57.5104051306844 0.46053064534785
57.5413085576147 0.625543468047547
57.572211984545 0.370921605799742
57.6031154114753 0.937736487175864
57.6340188384056 0.834916683604484
57.6649222653359 0.57585505222846
57.6958256922662 0.709658735904934
57.7267291191965 0.584542020348193
57.7576325461268 0.548719191272522
57.7885359730572 0.932547391535061
57.8194393999875 0.802990906850099
57.8503428269178 0.767192594360494
57.8812462538481 1.01265245406624
57.9121496807784 0.887584771681635
57.9430531077087 0.918775261492381
57.973956534639 1.0080096377842
58.0048599615693 1.00796647198565
58.0357633884996 1.1240029069539
58.0666668154299 1.25344037126035
58.0975702423602 0.967707436333588
58.1284736692905 1.44091124503075
58.1593770962209 1.38287322592327
58.1902805231512 1.29805766472543
58.2211839500815 1.14182170429438
58.2520873770118 1.65970105891582
58.2829908039421 1.26687430001834
58.3138942308724 1.33387714188763
58.3447976578027 1.04820958452372
58.375701084733 1.54380019935515
58.4066045116633 1.57064898638194
58.4375079385936 1.64661308846124
58.4684113655239 1.54401393416445
58.4993147924542 1.35213723777731
58.5302182193846 1.66026871358553
58.5611216463149 1.4996583615891
58.5920250732452 1.57119903893088
58.6229285001755 1.32131931703945
58.6538319271058 1.57144776734337
58.6847353540361 1.50015581841407
58.7156387809664 1.54047918453728
58.7465422078967 1.29956072285584
58.777445634827 1.42472186194118
58.8083490617573 1.11685545893617
58.8392524886876 1.63042579955508
58.8701559156179 1.14846859808363
58.9010593425483 1.30937671166468
58.9319627694786 1.83190014029823
58.9628661964089 1.59550316969856
58.9937696233392 1.35911437129425
59.0246730502695 1.58701945937101
59.0555764771998 1.37743271964313
59.0864799041301 1.31963986639631
59.1173833310604 1.25292661391628
59.1482867579907 1.45407867648874
59.179190184921 1.32041748268514
59.2100936118513 1.25372874679117
59.2409970387816 1.21383389737828
59.271900465712 1.41948293444645
59.3028038926423 1.32156871513855
59.3337073195726 1.43348409659744
59.3646107465029 1.60344336453739
59.3955141734332 1.7109108046727
59.4264176003635 1.31838641700337
59.4573210272938 1.41694163010081
59.4882244542241 1.60925501539362
59.5191278811544 1.45782657288178
59.5500313080847 1.72158487399387
59.580934735015 1.56124420444417
59.6118381619453 1.62412599280411
59.6427415888757 1.76737309621655
59.673645015806 1.5177712289672
59.7045484427363 1.79942753391321
59.7354518696666 1.978413439626
59.7663552965969 1.639550374677
59.7972587235272 1.44801691049479
59.8281621504575 2.07345590422222
59.8590655773878 1.71229592728786
59.8899690043181 1.87792983683457
59.9208724312484 1.62839334714807
59.9517758581787 1.90565074394263
59.982679285109 1.44184488436113
60.0135827120394 1.64769005411783
60.0444861389697 1.88479339606989
60.0753895659 1.67994062450302
60.1062929928303 1.76527459656008
60.1371964197606 1.76579531224106
60.1680998466909 1.46275277154597
60.1990032736212 1.57489697447481
60.2299067005515 1.937049349599
60.2608101274818 1.40188846834712
60.2917135544121 1.6167357592906
60.3226169813424 1.72891265100086
60.3535204082727 1.82770485776361
60.3844238352031 1.57829095100744
60.4153272621334 1.78424235930377
60.4462306890637 1.53930908265259
60.477134115994 1.56224112105391
60.5080375429243 1.82625276022202
60.5389409698546 1.50991542872834
60.5698443967849 1.3543005551443
60.6007478237152 1.89958671089847
60.6316512506455 1.12345246741943
60.6625546775758 1.41875496756431
60.6934581045061 1.43727992561884
60.7243615314364 1.429027341583
60.7552649583668 1.40292578688538
60.7861683852971 1.30540383295454
60.8170718122274 1.2257471940762
60.8479752391577 1.22199158453608
60.878878666088 1.10217271861988
60.9097820930183 0.861826310613321
60.9406855199486 1.0322023605164
60.9715889468789 1.03740801118627
61.0024923738092 1.19887183405149
61.0333958007395 1.64159382911207
61.0642992276698 1.16468113922515
61.0952026546001 0.964562335819292
61.1261060815305 0.858201704608793
61.1570095084608 1.11345638845079
61.1879129353911 0.891040673059575
61.2188163623214 0.940954558435144
61.2497197892517 0.88373375886321
61.280623216182 0.844378274343774
61.3115266431123 0.74699524773398
61.3424300700426 1.15854896474811
61.3733334969729 0.623682282529028
61.4042369239032 1.0575737725053
61.4351403508335 1.04950914896264
61.4660437777638 0.492345554758195
61.4969472046942 0.569118704177676
61.5278506316245 0.56554288293537
61.5587540585548 0.94590380531699
61.5896574854851 0.710201471322537
61.6205609124154 0.581650166666297
61.6514643393457 0.453107034205413
61.682367766276 0.762072073939883
61.7132711932063 0.361223857298282
61.7441746201366 0.487169527137749
61.7750780470669 0.639909083458286
61.8059814739972 0.734621097688465
61.8368849009275 0.347198426971141
61.8677883278579 0.584783928449173
61.8986917547882 0.630413316408275
61.9295951817185 0.568908019419875
61.9604986086488 0.485089466055403
61.9914020355791 0.566457656314856
62.0223054625094 0.232655447341093
62.0532088894397 0.639932839134116
62.08411231637 0.408825545979637
62.1150157433003 0.50361928216337
62.1459191702306 0.0582426191138872
62.1768225971609 0.679838413974045
62.2077260240912 0.569299523886701
62.2386294510216 0.59716166313757
62.2695328779519 0.44199626029808
62.3004363048822 0.282374743939661
62.3313397318125 0.707582828348024
62.3622431587428 0.485477656380315
62.3931465856731 0.660702085179391
62.4240500126034 0.51450611474525
62.4549534395337 0.756711173649321
62.485856866464 0.708745833320176
62.5167602933943 0.392931522329244
62.5476637203246 0.612839669247954
62.5785671472549 0.283648845504875
62.6094705741853 0.476787622528581
62.6403740011156 0.625291714604786
62.6712774280459 0.340768264590631
62.7021808549762 0.364288701057546
62.7330842819065 0.62442445257696
62.7639877088368 0.165818376291728
62.7948911357671 0.586684757916139
62.8257945626974 0.0611307403073331
62.8566979896277 0.495406323465311
62.887601416558 0.251118650247216
62.9185048434883 0.30594629208162
62.9494082704186 0.55721067753995
62.980311697349 0.777233235193637
63.0112151242793 0.439228250756963
63.0421185512096 0.583374295658502
63.0730219781399 0.415028512755398
63.1039254050702 0.416333759190505
63.1348288320005 0.564968606392396
63.1657322589308 0.526111625789643
63.1966356858611 0.487262817382246
63.2275391127914 0.622529324027346
63.2584425397217 0.422982574296374
63.289345966652 0.602908282475043
63.3202493935823 0.323020734277639
63.3511528205127 0.641355643989876
63.382056247443 0.383805868754611
63.4129596743733 0.528049980000416
63.4438631013036 0.935695120584434
63.4747665282339 0.39245557622095
63.5056699551642 0.684045632624249
63.5365733820945 0.685465289794332
63.5674768090248 0.700285976302629
63.5983802359551 0.715114835006282
63.6292836628854 0.604951865905289
63.6601870898157 0.450154211856795
63.691090516746 0.57215044428937
63.7219939436764 0.475404848917301
63.7528973706067 0.798310282883445
63.783800797537 0.603366746187802
63.8147042244673 0.667359953116084
63.8456076513976 0.543861332239723
63.8765110783279 0.81322802641586
63.9074145052582 0.658495749930209
63.9383179321885 0.731450217068485
63.9692213591188 0.679412856402116
64.0001247860491 0.47559795364539
64.0310282129794 0.584291223084017
64.0619316399097 0.822456950432288
64.0928350668401 0.810630849975912
64.1237384937704 0.856848636000608
64.1546419207007 0.746824594220657
64.185545347631 1.12341586749321
64.2164487745613 0.691979598675395
64.2473522014916 0.693587216338655
64.2782556284219 0.909488720482984
64.3091590553522 1.04950553967981
64.3400624822825 0.845780531071995
64.3709659092128 0.838492266088105
64.4018693361431 0.759783601870999
64.4327727630734 0.712333109849248
64.4636761900038 0.883640790022852
64.4945796169341 1.0594209281061
64.5254830438644 1.04324495267041
64.5563864707947 1.1476128637158
64.587289897725 1.41270323267083
64.6181933246553 0.976908916678352
64.6490967515856 1.20183705859552
64.6800001785159 1.30623765842232
64.7109036054462 0.879396430444487
64.7418070323765 0.863277660376291
64.7727104593068 0.887345633932021
64.8036138862371 0.808743208254537
64.8345173131675 1.25247038334383
64.8654207400978 0.749777159199919
64.8963241670281 0.787270678679927
64.9272275939584 0.610486656069578
64.9581310208887 0.956032234226012
64.989034447819 0.850693127434948
65.0199378747493 0.763219335696378
65.0508413016796 0.79628943043888
65.0817447286099 0.704367697376736
65.1126481555402 0.710668422224233
65.1435515824705 0.547334462124231
65.1744550094008 0.696508674219583
65.2053584363312 0.452833915653147
65.2362618632615 0.472560186424923
65.2671652901918 0.795866057963485
65.2980687171221 0.753108673125972
65.3289721440524 0.487145174769529
65.3598755709827 0.377439848608442
65.390778997913 0.468635551785568
65.4216824248433 0.358946570015192
65.4525858517736 0.593015760440172
65.4834892787039 0.411914551631935
65.5143927056342 0.0477858007333385
65.5452961325645 0.259558079172956
65.5761995594949 0.105267101236501
65.6071029864252 0.183127152638257
65.6380064133555 0.359209661949655
65.6689098402858 0.468336057742122
65.6998132672161 0.202470625729945
65.7307166941464 0.204470508770267
65.7616201210767 -0.00780715027977053
65.792523548007 0.181709077151261
65.8234269749373 0.384626333920505
65.8543304018676 -0.247269665686322
65.8852338287979 -0.0443360645263668
65.9161372557282 0.0336057088289445
65.9470406826586 0.276734225808183
65.9779441095889 0.00647805783991995
66.0088475365192 0.017480062067011
66.0397509634495 -0.0652597615105419
66.0706543903798 -0.0988842700355956
66.1015578173101 -0.212857749222437
66.1324612442404 0.115141229500361
66.1633646711707 0.188684094704231
66.194268098101 0.114913703532027
66.2251715250313 0.000972913126606301
66.2560749519616 0.244183152059399
66.2869783788919 -0.101884151098166
66.3178818058223 0.244021003653909
66.3487852327526 0.0408271877441955
66.3796886596829 0.0296058297441251
66.4105920866132 0.165714072510838
66.4414955135435 0.301830487472905
66.4723989404738 0.357597931773187
66.5033023674041 -0.0241264517311768
66.5342057943344 0.312907336959814
66.5651092212647 0.172270726417591
66.596012648195 0.348606573785007
66.6269160751253 -0.055406549509363
66.6578195020556 0.0941599279630507
66.688722928986 -0.0151939937977517
66.7196263559163 -0.151325457648913
66.7505297828466 -0.0965113755179825
66.7814332097769 0.016346593094017
66.8123366367072 0.160462733901373
66.8432400636375 0.00547990404694154
66.8741434905678 0.113898103530721
66.9050469174981 0.369645903781286
66.9359503444284 0.0495090190843488
66.9668537713587 0.0865231637256247
66.997757198289 0.123545480562256
67.0286606252193 -0.1072811732629
67.0595640521497 -0.0300639406069871
67.09046747908 0.0516257499585677
67.1213709060103 -0.0541763872805223
67.1522743329406 -0.0930060666099717
67.1831777598709 -0.127363288029779
67.2140811868012 0.240073377031484
67.2449846137315 0.0896610714309585
67.2758880406618 0.117828366597217
67.3067914675921 -0.153103308898312
67.3376948945224 -0.0356339550556282
67.3685983214527 0.130950713839555
67.399501748383 0.0966506977872346
67.4304051753134 0.205215996787414
67.4613086022437 -0.038889103445622
67.492212029174 0.163442539945267
67.5231154561043 -0.0761819301827735
67.5540188830346 0.170808914741684
67.5849223099649 -0.0777277824242173
67.6158257368952 0.196065121176667
67.6467291638255 0.193080482687191
67.6776325907558 0.0249254449644987
67.7085360176861 0.120171436580019
67.7394394446164 -0.0970743996091041
67.7703428715467 0.123187936397128
67.8012462984771 0.294351301741572
67.8321497254074 0.0592728392813715
67.8630531523377 -0.211511736697759
67.893956579268 0.0266404309470385
67.9248600061983 0.0773007707871898
67.9557634331286 0.163683568536983
67.9866668600589 0.0134673956249891
68.0175702869892 0.00611653776549304
68.0484737139195 0.262166709244209
68.0793771408498 0.0539393386325671
68.1102805677801 0.0912558545019948
68.1411839947104 0.00358054256677764
68.1720874216408 0.00519911711263088
68.2029908485711 0.0425401495681248
68.2338942755014 0.0664964970761162
68.2647977024317 -0.06132469750625
68.295701129362 -0.135566291321833
68.3266045562923 0.0714502870579405
68.3575079832226 0.157939323347354
68.3884114101529 -0.201992039596448
68.4193148370832 -0.142272373202037
68.4502182640135 -0.149508820326556
68.4811216909438 0.00844147617285085
68.5120251178741 -0.0211000551323863
68.5429285448045 0.212759442900589
68.5738319717348 0.156448541700348
68.6047353986651 0.010860098409748
68.6356388255954 0.137601255885933
68.6665422525257 -0.0704708430139549
68.697445679456 0.0428938017100826
68.7283491063863 -0.200876238513381
68.7592525333166 -0.0398239088179588
68.7901559602469 -0.124299121212895
68.8210593871772 0.295698124301808
68.8519628141075 -0.190546457988131
68.8828662410378 0.0508957033458541
68.9137696679682 -0.0112253916962333
68.9446730948985 0.185590256885608
68.9755765218288 0.0609855062342319
69.0064799487591 -0.0725396436503605
69.0373833756894 0.253764807231833
69.0682868026197 -0.120815426833476
69.09919022955 -0.138244631560574
69.1300936564803 0.0586200501934
69.1609970834106 -0.159685667285843
69.1919005103409 0.233623930287411
69.2228039372712 0.140334557198879
69.2537073642015 0.0738390705914176
69.2846107911319 0.168066041893596
69.3155142180622 0.190872613962559
69.3464176449925 0.227080215369734
69.3773210719228 -0.0492040110277348
69.4082244988531 0.192377077627295
69.4391279257834 0.192894909906251
69.4700313527137 0.461278057237705
69.500934779644 0.180562233907371
69.5318382065743 0.149854582772394
69.5627416335046 0.0745122466899151
69.5936450604349 0.133106654231363
69.6245484873652 0.477423519682452
69.6554519142956 0.134248557328895
69.6863553412259 0.0634031957421231
69.7172587681562 -0.0610054222207213
69.7481621950865 -0.0737987251310672
69.7790656220168 -0.385690998703201
69.8099690489471 0.172960614205735
69.8408724758774 0.0619775421671696
69.8717759028077 -0.066854500533184
69.902679329738 -0.00371408532389683
69.9335827566683 0.0683630735093184
69.9644861835986 -0.0738373097478249
69.9953896105289 0.0205776220475293
70.0262930374593 0.00785786889538098
70.0571964643896 -0.0316394263471249
70.0880998913199 -0.0845214065371334
70.1190033182502 0.228676214039643
70.1499067451805 0.16241772109749
70.1808101721108 0.328310257493547
70.2117135990411 0.364746680370676
70.2426170259714 0.410119846871731
70.2735204529017 0.0849654712824277
70.304423879832 -0.0303593035400924
70.3353273067623 0.0730740938327434
70.3662307336926 -0.0199129080276377
70.397134160623 0.0567511194501957
70.4280375875533 -0.125505252305188
70.4589410144836 0.187782262420498
70.4898444414139 0.0546493779129689
70.5207478683442 0.229560379886508
70.5516512952745 0.297336696912546
70.5825547222048 -0.375950242437489
70.6134581491351 -0.116193295306454
70.6443615760654 0.16142896687708
70.6752650029957 0.131023686970254
70.706168429926 0.0515194364016409
70.7370718568563 0.101487643742669
70.7679752837867 0.36128545185048
70.798878710717 -0.133372853560637
70.8297821376473 0.336262727509315
70.8606855645776 0.238942195060336
70.8915889915079 0.132701263378141
70.9224924184382 0.0532542181770168
70.9533958453685 -0.00832751197160952
70.9842992722988 0.300634644360833
71.0152026992291 0.261390687174346
71.0461061261594 -0.0769522406739283
71.0770095530897 -0.107251282041133
71.10791298002 0.0276364202155888
71.1388164069504 0.0598537232390948
71.1697198338807 0.141186341315099
71.200623260811 0.168955703015031
71.2315266877413 0.0270903797674604
71.2624301146716 0.197733228715245
71.2933335416019 -0.00215146442732816
71.3242369685322 0.0881505860540255
71.3551403954625 0.24542509444502
71.3860438223928 -0.0660422249686299
71.4169472493231 0.118034342098789
71.4478506762534 0.061047652790136
71.4787541031837 0.338890564248266
71.5096575301141 0.085491647901752
71.5405609570444 -0.0116490962494069
71.5714643839747 0.199254046080505
71.602367810905 0.222665360605771
71.6332712378353 0.299656275897821
71.6641746647656 -0.0295946366147719
71.6950780916959 0.0965197659251329
71.7259815186262 -0.0362862307681802
71.7568849455565 -0.0217626266947075
71.7877883724868 0.144554863859835
71.8186917994171 0.0296305266097328
71.8495952263474 -0.1209999241593
71.8804986532778 0.415877797267023
71.9114020802081 -0.0829505948255838
71.9423055071384 -0.148735100437122
71.9732089340687 0.0593492038556844
72.004112360999 0.312084537486705
72.0350157879293 0.0692923290273653
72.0659192148596 0.0631154356205235
72.0968226417899 0.132839571551895
72.1277260687202 0.0240004511071925
72.1586294956505 0.227669502857847
72.1895329225808 -0.00168898748185775
72.2204363495111 0.371639265802363
72.2513397764415 -0.0184171658609165
72.2822432033718 -0.14953685390027
72.3131466303021 0.0214898681374338
72.3440500572324 0.156810476656206
72.3749534841627 0.399282114513192
72.405856911093 0.0837262102798189
72.4367603380233 0.245857049670372
72.4676637649536 -0.0473610816008616
72.4985671918839 0.065678959323261
72.5294706188142 0.0403343152998801
72.5603740457445 -0.110002156528145
72.5912774726748 0.172705258124901
72.6221808996052 0.227742273544729
72.6530843265355 0.202430318302771
72.6839877534658 0.0878408209704542
72.7148911803961 -0.0847762184522214
72.7457946073264 -0.105599371393828
72.7766980342567 0.288764219288493
72.807601461187 0.312600267880454
72.8385048881173 0.0551944886677713
72.8694083150476 0.20851116736473
72.9003117419779 0.187728875399902
72.9312151689082 0.113383327059
72.9621185958385 0.195295950913454
72.9930220227689 0.353109604106119
73.0239254496992 0.0466457152084265
73.0548288766295 -0.00534571577962506
73.0857323035598 0.121242453999106
73.1166357304901 -0.216446918312519
73.1475391574204 -0.0541281184287907
73.1784425843507 0.179627425078865
73.209346011281 0.27499828363902
73.2402494382113 0.0534130286802439
73.2711528651416 0.144335945916824
73.3020562920719 0.0566956067773301
73.3329597190022 0.0628134398331914
73.3638631459326 0.153760873655837
73.3947665728629 -0.116890663183304
73.4256699997932 0.286573115030052
73.4565734267235 0.0784379225816219
73.4874768536538 -0.000224811957167503
73.5183802805841 0.394334911413683
73.5492837075144 -0.0994900501629656
73.5801871344447 0.330800303312881
73.611090561375 0.354848828984085
73.6419939883053 0.00836981256493008
73.6728974152356 0.291363254055416
73.7038008421659 0.342222010598401
73.7347042690963 -0.14708963209183
73.7656076960266 0.0868211831275785
73.7965111229569 0.226990170542344
73.8274145498872 0.166274473009608
73.8583179768175 0.136816947672226
73.8892214037478 0.143081880244487
73.9201248306781 0.144890699297815
73.9510282576084 0.20027911911793
73.9819316845387 0.349425711133399
74.012835111469 0.199473332487081
74.0437385383993 0.178993411750404
74.0746419653296 0.341557377494796
74.10554539226 0.307700944005973
74.1364488191903 0.305102682712505
74.1673522461206 0.222155450757251
74.1982556730509 0.322252105283065
74.2291590999812 0.29289264628995
74.2600625269115 0.299255645206475
74.2909659538418 0.162769673461213
74.3218693807721 0.227184731054164
74.3527728077024 -0.0387491820146728
74.3836762346327 0.47211079139756
74.414579661563 -0.0750567772805661
74.4454830884933 0.0608195405223775
74.4763865154237 -0.133653112336466
74.507289942354 0.00670383557147503
74.5381933692843 0.129211812817628
74.5690967962146 0.207085105116279
74.6000002231449 0.110859426753144
74.6309036500752 0.130713349156792
74.6618070770055 -0.0503174133870621
74.6927105039358 0.139195710550155
74.7236139308661 -0.153425850460131
74.7545173577964 0.013782189296367
74.7854207847267 -0.0868587416089222
74.816324211657 -0.0535629288902841
74.8472276385874 -0.0336518011191478
74.8781310655177 0.187160355990201
74.909034492448 -0.0741621718479513
74.9399379193783 -0.152440813205034
74.9708413463086 -0.154001681345181
75.0017447732389 -0.157203721979099
