'Id: "" Comment: "" Operator: "Lab Manager" Anode: "Cu" Scantype: "Coupled TwoTheta/Theta" TimePerStep: "224" 
25 -0.120700944951748
25.0309034269303 -0.207568284521979
25.0618068538606 0.0384128430972654
25.0927102807909 -0.264709510830643
25.1236137077212 0.0393146536942979
25.1545171346515 -0.170050377613628
25.1854205615819 0.00451682381700858
25.2163239885122 -0.115555170585221
25.2472274154425 -0.188048894061648
25.2781308423728 0.159103900914772
25.3090342693031 0.0241175000583267
25.3399376962334 0.201634760511872
25.3708411231637 -0.00923717486744868
25.401744550094 -0.0459983060796358
25.4326479770243 0.0824227954467398
25.4635514039546 -0.057009584574037
25.4944548308849 -0.14733116042768
25.5253582578152 0.20877949645724
25.5562616847456 -0.0109990424907069
25.5871651116759 -0.00755963441437713
25.6180685386062 0.196776292114801
25.6489719655365 -0.308705548617459
25.6798753924668 -0.113290870896871
25.7107788193971 0.252644997328582
25.7416822463274 -0.260879758850261
25.7725856732577 0.11845628913803
25.803489100188 -0.0513111444208305
25.8343925271183 0.015532226187442
25.8652959540486 0.162736400962849
25.8961993809789 -0.0204129058088967
25.9271028079093 0.314298591586492
25.9580062348396 0.1713351788633
25.9889096617699 0.456946856021527
26.0198130887002 0.130955051632603
26.0507165156305 -0.0923545200177593
26.0816199425608 0.220053855356155
26.1125233694911 0.121751606325775
26.1434267964214 0.170774447176814
26.1743302233517 0.103729520766416
26.205233650282 -0.00795460147684857
26.2361370772123 0.161614937589877
26.2670405041426 0.103509566538023
26.297943931073 -0.151020714632411
26.3288473580033 0.170345522650001
26.3597507849336 0.022965421242406
26.3906542118639 0.0363032668590866
26.4215576387942 0.143394773785759
26.4524610657245 -0.0218314865490075
26.4833644926548 0.241517342997646
26.5142679195851 0.0495126909971484
26.5451713465154 0.228047414592355
26.5760747734457 0.10747865664041
26.606978200376 0.0672707028555983
26.6378816273063 0.156530696095063
26.6687850542367 0.125258636358805
26.699688481167 0.0538116665039672
26.7305919080973 0.125225500816262
26.7614953350276 0.116285853581406
26.7923987619579 0.272528439085111
26.8233021888882 -0.0131895998154778
26.8542056158185 0.089488879736781
26.8851090427488 -0.0622932651152555
26.9160124696791 0.147535394199843
26.9469158966094 0.0805820005392177
26.9778193235397 -0.0220820175257033
27.00872275047 -0.00867094570920379
27.0396261774004 -0.0666847840112852
27.0705296043307 0.152090753282339
27.101433031261 0.0851556661716679
27.1323364581913 -0.106775759629012
27.1632398851216 0.263796475880298
27.1941433120519 -0.017413341586114
27.2250467389822 0.165666216543179
27.2559501659125 0.00946372169674836
27.2868535928428 0.138979173874594
27.3177570197731 0.0720697159338597
27.3486604467034 -0.0841217949825981
27.3795638736337 -0.195666787446208
27.4104673005641 0.264220452828745
27.4413707274944 -0.00356721701488327
27.4722741544247 -0.057065511262806
27.503177581355 0.152832712942119
27.5340810082853 0.237734598457036
27.5649844352156 0.148533002424799
27.5958878621459 0.211120781988269
27.6267912890762 0.0683550800045865
27.6576947160065 0.403271610759466
27.6885981429368 -0.123415340032806
27.7195015698671 0.0240085133420562
27.7504049967974 0.135721742312623
27.7813084237278 0.131367204021752
27.8122118506581 0.158266327040872
27.8431152775884 -0.0112594600585876
27.8740187045187 -0.127210157276629
27.904922131449 0.0145939581844625
27.9358255583793 0.138544592098402
27.9667289853096 0.0303560301794747
27.9976324122399 0.24359970099911
28.0285358391702 -0.00297439544269151
28.0594392661005 0.170098026568355
28.0903426930308 0.0619241098893912
28.1212461199611 0.0341109973775615
28.1521495468915 -0.0517341681099905
28.1830529738218 0.295460041998162
28.2139564007521 0.477479341987733
28.2448598276824 0.0925380175730104
28.2757632546127 0.15402892589685
28.306666681543 -0.0567979330407482
28.3375701084733 0.210057440760216
28.3684735354036 0.293880761585457
28.3993769623339 0.13663631514926
28.4302803892642 0.064216958594483
28.4611838161945 0.107872691921125
28.4920872431248 0.307782086557758
28.5229906700552 0.262159428218668
28.5538940969855 0.0379690026181398
28.5847975239158 0.07717509547046
28.6157009508461 0.11638484963277
28.6466043777764 0.0395268365336441
28.6775078047067 0.40910105617308
28.708411231637 0.171536079979649
28.7393146585673 0.24647476509621
28.7702180854976 0.142845682951332
28.8011215124279 0.119577404973589
28.8320249393582 0.27934850259155
28.8629283662885 0.305194690090932
28.8938317932189 0.223901681757447
28.9247352201492 0.231898049019667
28.9556386470795 0.271148077591878
28.9865420740098 0.551473196045509
29.0174455009401 0.385373404380559
29.0483489278704 0.192491559739886
29.0792523548007 0.249613376409203
29.110155781731 0.333524568674226
29.1410592086613 0.0602965651063827
29.1719626355916 0.331715079991387
29.2028660625219 0.330815827614954
29.2337694894522 0.495098807977084
29.2646729163826 0.378135449649204
29.2955763433129 0.439747181202744
29.3264797702432 0.456719716923417
29.3573831971735 0.393338771096938
29.3882866241038 0.450497200866165
29.4191900510341 0.373730720516812
29.4500934779644 0.444289330048878
29.4809969048947 0.430030172319505
29.511900331825 0.634524675900125
29.5428037587553 0.647058555076449
29.5737071856856 0.454238952705621
29.6046106126159 0.573923011644784
29.6355140395463 0.675753589036796
29.6664174664766 0.661516399167369
29.6973208934069 0.723175727750791
29.7282243203372 0.583945860501346
29.7591277472675 0.891148225990464
29.7900311741978 0.96174710993243
29.8209346011281 0.652885369470101
29.8518380280584 0.897598718889192
29.8827414549887 0.794101443903987
29.913644881919 0.762036401657345
29.9445483088493 0.64068930643498
29.9754517357796 0.680060158236891
30.00635516271 0.884613242777365
30.0372585896403 0.772205702913544
30.0681620165706 0.521408967216856
30.0990654435009 1.00275874997302
30.1299688704312 1.0689336226106
30.1608722973615 0.86279072798674
30.1917757242918 0.893258637530017
30.2226791512221 1.04873020838328
30.2535825781524 0.994384011975114
30.2844860050827 0.882005762591219
30.315389432013 1.0240954602316
30.3462928589433 0.987617390610548
30.3771962858737 1.04935726801377
30.408099712804 0.803065092441268
30.4390031397343 0.838026578178757
30.4699065666646 0.645313153797666
30.5008099935949 1.04188910501228
30.5317134205252 0.675075860394028
30.5626168474555 0.754694848514339
30.5935202743858 0.704853212230353
30.6244237013161 0.815729522970646
30.6553271282464 0.658752352163786
30.6862305551767 0.845528842666917
30.717133982107 0.737666137337182
30.7480374090374 0.656592807603152
30.7789408359677 0.77641599632197
30.809844262898 0.838207132065064
30.8407476898283 0.569644786261007
30.8716511167586 0.359121816052655
30.9025545436889 0.675388221440008
30.9334579706192 0.563086859565924
30.9643613975495 0.63828915900183
30.9952648244798 0.744745119747728
31.0261682514101 0.62799045608933
31.0570716783404 0.49338231088378
31.0879751052707 0.430206398416794
31.1188785322011 0.554534147259797
31.1497819591314 0.384222700269935
31.1806853860617 0.173736343161492
31.211588812992 0.49450364736304
31.2424922399223 0.315274612874579
31.2733956668526 0.332477811124681
31.3042990937829 0.193434670684772
31.3352025207132 0.384752334411999
31.3661059476435 0.299287945163501
31.3970093745738 0.472755788653566
31.4279128015041 0.159620150596479
31.4588162284344 0.279523888135097
31.4897196553648 0.225324144126564
31.5206230822951 0.407735204285164
31.5515265092254 0.197292782896612
31.5824299361557 0.357389737103765
31.613333363086 0.155883209763767
31.6442367900163 0.177594629448044
31.6751402169466 -0.0239045752719727
31.7060436438769 0.113885595603716
31.7369470708072 0.34096514207511
31.7678504977375 0.0189412069993513
31.7987539246678 0.0540637903764409
31.8296573515981 0.0624043207778078
31.8605607785285 0.213605655346308
31.8914642054588 0.119274936939084
31.9223676323891 0.0383407369847095
31.9532710593194 0.149374484054611
31.9841744862497 -0.105659536136926
32.01507791318 0.317881533552958
32.0459813401103 0.143211978838546
32.0768847670406 0.15158179971984
32.1077881939709 0.186740996196839
32.1386916209012 0.3558324254124
32.1695950478315 0.449034658795095
32.2004984747618 0.269919124916353
32.2314019016922 0.144378680919029
32.2623053286225 0.250984755374554
32.2932087555528 0.152237348282927
32.3241121824831 0.0490293167870055
32.3550156094134 0.311896375172503
32.3859190363437 -0.126125762274865
32.416822463274 0.0876414758734714
32.4477258902043 0.292483803903227
32.4786293171346 0.0196512218144029
32.5095327440649 0.224500872464141
32.5404361709952 0.165961327281012
32.5713395979255 0.129746871979304
32.6022430248559 0.0042503637018716
32.6331464517862 0.387686088163002
32.6640498787165 0.338089759648409
32.6949533056468 0.123318521015235
32.7258567325771 0.118372372263481
32.7567601595074 0.19378702767886
32.7876635864377 0.0147410586899452
32.818567013368 0.00534160815387796
32.8494704402983 0.290588676070659
32.8803738672286 0.0847679767260021
32.9112772941589 0.27180808154848
32.9421807210892 0.155280419109518
32.9730841480196 0.065542132266263
33.0039875749499 0.0472360781615699
33.0348910018802 0.158397971081153
33.0657944288105 -0.118829331832129
33.0966978557408 0.0994827408502936
33.1276012826711 0.201727046271278
33.1585047096014 0.205760727287969
33.1894081365317 0.223190926757507
33.220311563462 -0.0540180696058212
33.2512149903923 0.249133738197984
33.2821184173226 0.217467778740352
33.3130218442529 0.17687690916414
33.3439252711833 0.12289684375506
33.3748286981136 0.318920439655973
33.4057321250439 0.0774476968668765
33.4366355519742 0.443121472530628
33.4675389789045 0.313263195218656
33.4984424058348 0.446801436359531
33.5293458327651 0.352664767381826
33.5602492596954 0.343353188285542
33.5911526866257 0.316188127642104
33.622056113556 0.409562442594372
33.6529595404863 0.538654704570917
33.6838629674166 0.359714913571739
33.714766394347 0.408457355311122
33.7456698212773 0.582203458360497
33.7765732482076 0.389881794148434
33.8074766751379 0.215420934103505
33.8383801020682 0.563285163939995
33.8692835289985 0.429010197943619
33.9001869559288 0.718846036114377
33.9310903828591 0.446185535595126
33.9619938097894 0.749421553528722
33.9928972367197 0.499089804200882
34.02380066365 0.579118859040174
34.0547040905803 0.63683014661803
34.0856075175107 0.547223666934447
34.116510944441 0.783513705703712
34.1474143713713 0.671593120068683
34.1783177983016 0.765033338600788
34.2092212252319 0.840620075585741
34.2401246521622 0.572460473880684
34.2710280790925 0.817697390628476
34.3019315060228 1.04508082582912
34.3328349329531 1.07157506519689
34.3637383598834 0.932894394446083
34.3946417868137 0.798681670719552
34.425545213744 1.16000832258873
34.4564486406744 0.829374350053606
34.4873520676047 1.23535118168562
34.518255494535 1.09668881748477
34.5491589214653 1.21249440030819
34.5800623483956 0.703303644441607
34.6109657753259 1.24768797845644
34.6418692022562 1.38136168806698
34.6727726291865 1.14896763041608
34.7036760561168 1.40764866264661
34.7345794830471 1.3895476419014
34.7654829099774 1.44734313960905
34.7963863369077 1.73282087005526
34.8272897638381 1.58080226181146
34.8581931907684 1.61182302916336
34.8890966176987 1.55802602925383
34.920000044629 1.47298269065429
34.9509034715593 1.78080015622188
34.9818068984896 1.70915699738518
35.0127103254199 1.89644607128704
35.0436137523502 2.11945309221317
35.0745171792805 2.04782091730644
35.1054206062108 2.08779954656685
35.1363240331411 1.96706755142295
35.1672274600714 2.25258921758905
35.1981308870018 2.22115025935086
35.2290343139321 2.06471496242265
35.2599377408624 2.4841761839473
35.2908411677927 2.37239106678193
35.321744594723 2.49275246806942
35.3526480216533 2.49258181638118
35.3835514485836 2.55045054028864
35.4144548755139 2.52350149693467
35.4453583024442 2.60816325774783
35.4762617293745 2.77765010844241
35.5071651563048 2.87124776330412
35.5380685832351 2.60324193661869
35.5689720101655 2.60756119981467
35.5998754370958 2.41991983860635
35.6307788640261 2.85281785299375
35.6616822909564 2.64286238583399
35.6925857178867 2.67844629426993
35.723489144817 3.27206957830158
35.7543925717473 2.81212509507179
35.7852959986776 2.70039855886628
35.8161994256079 2.95474711254219
35.8471028525382 2.97695647038524
35.8780062794685 2.73577663239541
35.9089097063988 2.65531474142986
35.9398131333292 2.61503508320288
35.9707165602595 2.69975908628589
36.0016199871898 2.4987724649646
36.0325234141201 2.56118236209616
36.0634268410504 2.57895306339485
36.0943302679807 2.42262028314639
36.125233694911 2.3064697356365
36.1561371218413 2.5608585637223
36.1870405487716 2.42239391026096
36.2179439757019 2.04286148953818
36.2488474026322 1.85976130155396
36.2797508295625 2.11862906059402
36.3106542564929 1.96678619522979
36.3415576834232 1.83280413403268
36.3724611103535 1.87293287700271
36.4033645372838 1.80592242413988
36.4342679642141 1.86391563258703
36.4651713911444 1.5736982166299
36.4960748180747 1.65402017626846
36.526978245005 1.46648865435988
36.5578816719353 1.42628222233271
36.5887850988656 1.40840088018696
36.6196885257959 1.18963034220835
36.6505919527262 1.07800632268259
36.6814953796566 1.01102882160967
36.7123988065869 1.32351926756103
36.7433022335172 0.765477660536665
36.7742056604475 0.93958257196515
36.8051090873778 1.10476257327505
36.8360125143081 1.11816052160923
36.8669159412384 1.02441927411055
36.8978193681687 0.903895973636139
36.928722795099 1.00659062018601
36.9596262220293 0.79232464233158
36.9905296489596 0.756633754358572
37.0214330758899 0.712017956266985
37.0523365028203 0.868298676628244
37.0832399297506 0.868333058299494
37.1141433566809 0.538013958423593
37.1450467836112 0.645198519857683
37.1759502105415 0.47560102831605
37.2068536374718 0.439935769512979
37.2377570644021 0.448917029162756
37.2686604913324 0.359687664408237
37.2995639182627 0.511533389535139
37.330467345193 0.395525633114888
37.3613707721233 0.342021538004629
37.3922741990536 0.417985389918647
37.423177625984 0.458238617428369
37.4540810529143 0.409209791962368
37.4849844798446 0.413756056377786
37.5158879067749 0.123663124960338
37.5467913337052 0.181788140567167
37.5776947606355 0.628309674626844
37.6085981875658 0.280192012853655
37.6395016144961 0.191006583819028
37.6704050414264 0.204503387522963
37.7013084683567 0.329610995394032
37.732211895287 0.173472264575092
37.7631153222173 0.276265766494715
37.7940187491477 0.204955786867185
37.824922176078 0.164899468549646
37.8558256030083 0.178418240113527
37.8867290299386 0.183012101558828
37.9176324568689 0.285823910028405
37.9485358837992 0.268103665522258
37.9794393107295 0.281637082326103
38.0103427376598 0.138924160439938
38.0412461645901 0.241750614149479
38.0721495915204 0.210652157740439
38.1030530184507 0.0679502197842474
38.133956445381 0.251144800280904
38.1648598723114 0.331664470658979
38.1957632992417 0.269330659489903
38.226666726172 0.122179081059389
38.2575701531023 0.104495449653152
38.2884735800326 0.265386908128335
38.3193770069629 0.0602105993420796
38.3502804338932 0.180930809008672
38.3811838608235 -0.0153096057290303
38.4120872877538 0.0652393551289729
38.4429907146841 0.168113405868395
38.4738941416144 0.12366968934638
38.5047975685447 0.0345867769914991
38.5357009954751 0.182114668803752
38.5666044224054 0.186789079068852
38.5975078493357 0.0352171506439438
38.628411276266 -0.0627796878995452
38.6593147031963 0.151727134866956
38.6902181301266 0.18766619037202
38.7211215570569 0.0762874786156464
38.7520249839872 0.219376713883551
38.7829284109175 -0.0616375323956984
38.8138318378478 0.0903875969207575
38.8447352647781 -0.10579789816708
38.8756386917084 0.0551631251979292
38.9065421186388 -0.0651221901270702
38.9374455455691 0.0645961558579216
38.9683489724994 0.0112824488671892
38.9992523994297 -0.0241704539564083
39.03015582636 -0.202476838327159
39.0610592532903 0.0879704386120825
39.0919626802206 -0.139435765995829
39.1228661071509 0.115304547849109
39.1537695340812 0.258441380146894
39.1846729610115 0.214081873754669
39.2155763879418 0.160797457243865
39.2464798148721 -0.0398047265283772
39.2773832418025 -0.0171889632763427
39.3082866687328 -0.110640967285746
39.3391900956631 0.237874975729127
39.3700935225934 0.0997874371968495
39.4009969495237 0.184917845688847
39.431900376454 0.00665905834797931
39.4628038033843 0.265903932317102
39.4937072303146 -0.0462761038323554
39.5246106572449 0.0031546641853204
39.5555140841752 -0.00991090648701265
39.5864175111055 -0.0854728158493545
39.6173209380358 -0.000316778187419597
39.6482243649662 -0.133907079215495
39.6791277918965 0.00441919736252183
39.7100312188268 0.0222134209648153
39.7409346457571 0.0400113058770999
39.7718380726874 0.37477713781366
39.8027414996177 -0.0895605117969307
39.833644926548 0.106819785616755
39.8645483534783 -0.14322482708814
39.8954517804086 -0.00933720705447305
39.9263552073389 0.102232645717757
39.9572586342692 0.133449016942835
39.9881620611995 0.0753833351921891
40.0190654881299 -0.152321542391323
40.0499689150602 -0.054129901521986
40.0808723419905 -0.0228988850569447
40.1117757689208 0.262800078432373
40.1426791958511 0.164574131803111
40.1735826227814 0.164566132198125
40.2044860497117 0.0708117939031303
40.235389476642 -0.0631174545104449
40.2662929035723 0.110992672671685
40.2971963305026 -0.0586435388361952
40.3280997574329 -0.0407760890340834
40.3590031843632 0.0887021649351625
40.3899066112936 0.410148365928684
40.4208100382239 -0.0719732003392317
40.4517134651542 0.01287318041713
40.4826168920845 -0.107633920373661
40.5135203190148 0.0888269258598249
40.5444237459451 0.249577147689016
40.5753271728754 0.231759602256769
40.6062305998057 -0.0271257104369158
40.637134026736 -0.147614504677752
40.6680374536663 0.0533289338199738
40.6989408805966 0.102490319341977
40.7298443075269 0.209691080459685
40.7607477344573 0.0445740743159551
40.7916511613876 0.183032158053645
40.8225545883179 -0.00439895404153212
40.8534580152482 -0.0980764048267178
40.8843614421785 -0.0980001943019122
40.9152648691088 0.0761868203900269
40.9461682960391 0.0985917821062419
40.9770717229694 -0.0173924520104083
41.0079751498997 0.179126975182932
41.03887857683 0.161364349400549
41.0697820037603 -0.0126446150718431
41.1006854306906 0.322278653194327
41.131588857621 0.139348439913345
41.1624922845513 0.00999331651378377
41.1933957114816 0.179748997281355
41.2242991384119 0.224508339358918
41.2552025653422 0.108557057032185
41.2861059922725 -0.0475691354131276
41.3170094192028 0.113272619165836
41.3479128461331 0.0642966064833628
41.3788162730634 0.0867528265394508
41.4097196999937 0.0645698507626733
41.440623126924 0.113819107724458
41.4715265538543 0.127357740281948
41.5024299807847 -0.0287428229934288
41.533333407715 0.283910275041186
41.5642368346453 0.0296027486715058
41.5951402615756 0.190477455040388
41.6260436885059 0.284391537004975
41.6569471154362 0.132773565993839
41.6878505423665 0.0258021134355508
41.7187539692968 0.0527628936158253
41.7496573962271 0.191334477963234
41.7805608231574 0.173659723620633
41.8114642500877 0.178310059159451
41.842367677018 0.227606913151118
41.8732711039484 0.0135145713099178
41.9041745308787 0.0315687479215665
41.935077957809 0.196948014414634
41.9659813847393 0.384652370789121
41.9968848116696 0.1348603884736
42.0277882385999 0.184179210325212
42.0586916655302 0.322787407772529
42.0895950924605 0.189077837958409
42.1204985193908 -0.0383780705457206
42.1514019463211 0.394883967974426
42.1823053732514 0.194221096375993
42.2132088001817 0.306061886087551
42.2441122271121 0.467013479966242
42.2750156540424 0.422611592297782
42.3059190809727 0.074641937367883
42.336822507903 0.141854515176547
42.3677259348333 0.235856468580916
42.3986293617636 0.499504940438134
42.4295327886939 0.249764216462485
42.4604362156242 0.343777153796827
42.4913396425545 0.433329466726875
42.5222430694848 0.545206869538341
42.5531464964151 0.197266505088371
42.5840499233454 0.389508373376961
42.6149533502758 0.202289617261258
42.6458567772061 0.38561023674126
42.6767602041364 0.327863088959824
42.7076636310667 0.323691031059808
42.738567057997 0.216844063041211
42.7694704849273 0.257322184904034
42.8003739118576 0.244232539505419
42.8312773387879 0.347217983988223
42.8621807657182 0.17788566120959
42.8930841926485 0.356771285455234
42.9239876195788 0.508874856725154
42.9548910465091 0.317232089305064
42.9857944734395 0.259521554623538
43.0166979003698 0.447350395537717
43.0476013273001 0.425361469190457
43.0785047542304 0.407840489867475
43.1094081811607 0.126930314711626
43.140311608091 0.243345229437197
43.1712150350213 0.33744237690133
43.2021184619516 0.458328899961168
43.2330218888819 0.440826227188141
43.2639253158122 0.356362930010818
43.2948287427425 0.155831865572058
43.3257321696728 0.406197319586145
43.3566355966032 0.375316434910224
43.3875390235335 0.540867782972865
43.4184424504638 0.724279935202639
43.4493458773941 0.568410034456691
43.4802493043244 0.483972366449305
43.5111527312547 0.573645502609052
43.542056158185 0.614215157221648
43.5729595851153 0.619074187429949
43.6038630120456 0.503401164662526
43.6347664389759 0.414517517490808
43.6656698659062 0.624744674486225
43.6965732928365 0.486761207077347
43.7274767197669 0.45145997240703
43.7583801466972 0.41169811333242
43.7892835736275 0.421047058424943
43.8201870005578 0.421471093398885
43.8510904274881 0.542434503968533
43.8819938544184 0.3732230044196
43.9128972813487 0.391515166180658
43.943800708279 0.324989560680278
43.9747041352093 0.414717616489889
44.0056075621396 0.522306476466635
44.0365109890699 0.402220426324799
44.0674144160002 0.554459466064383
44.0983178429306 0.470095024256815
44.1292212698609 0.416984243759238
44.1601246967912 0.38619855314308
44.1910281237215 0.150059380979771
44.2219315506518 0.320173870126452
44.2528349775821 0.217970592011696
44.2837384045124 0.459520975206931
44.3146418314427 0.268039305426442
44.345545258373 0.433704154098802
44.3764486853033 0.309194092652581
44.4073521122336 0.238259121087779
44.4382555391639 0.368220667975825
44.4691589660943 0.297293019031005
44.5000623930246 0.279940459967605
44.5309658199549 0.146520133642767
44.5618692468852 0.120246325770777
44.5927726738155 0.330583322065921
44.6236761007458 0.232888265385342
44.6545795276761 0.465554012871896
44.6854829546064 0.274116278811298
44.7163863815367 0.0157179203464062
44.747289808467 0.0787517946200764
44.7781932353973 0.217682187346594
44.8090966623276 0.142330527097389
44.840000089258 0.142875385301031
44.8709035161883 0.031816761957522
44.9018069431186 0.273440371352575
44.9327103700489 0.278460499200476
44.9636137969792 -0.0200871402130605
44.9945172239095 0.270654595969108
45.0254206508398 0.253364279175553
45.0563240777701 0.128934766549133
45.0872275047004 0.200937486661274
45.1181309316307 0.0318724395119778
45.149034358561 -0.0479032320416133
45.1799377854913 0.0464319005719291
45.2108412124217 0.230056408781177
45.241744639352 -0.081851135985298
45.2726480662823 -0.103576448013211
45.3035514932126 -0.0895838130168478
45.3344549201429 0.205662483289507
45.3653583470732 0.0946624409058523
45.3962617740035 0.30509463126076
45.4271652009338 -0.221076659931484
45.4580686278641 -0.0820657183851661
45.4889720547944 0.0792703130425712
45.5198754817247 0.0531100057803
45.550778908655 -0.00876092588626642
45.5816823355854 0.00972894661430157
45.6125857625157 -0.101241805289426
45.643489189446 0.113683961259695
45.6743926163763 0.0384348176902347
45.7052960433066 0.00783219257362333
45.7361994702369 0.307590371624145
45.7671028971672 0.0582450691275156
45.7980063240975 0.032117713655162
45.8289097510278 0.242601162349943
45.8598131779581 0.292373986640428
45.8907166048884 0.123400472240905
45.9216200318187 -0.0723550951343412
45.9525234587491 -0.187749858342454
45.9834268856794 0.103109039759424
46.0143303126097 0.0457573134570066
46.04523373954 0.13573067703601
46.0761371664703 0.047136273353575
46.1070405934006 -0.0994901833045838
46.1379440203309 -0.0362915500813226
46.1688474472612 0.00905360159478663
46.1997508741915 -0.0527404425619706
46.2306543011218 -0.0118522539801651
46.2615577280521 -0.29238897551694
46.2924611549824 0.0163606110443388
46.3233645819128 -0.170421855370106
46.3542680088431 0.0535136252397264
46.3851714357734 0.272988481445263
46.4160748627037 0.0817527132465066
46.446978289634 -0.207693679356546
46.4778817165643 -0.0149935535067507
46.5087851434946 -0.183896909204107
46.5396885704249 0.147203396408528
46.5705919973552 0.237235934759725
46.6014954242855 0.0460221344209133
46.6323988512158 0.0110619953920925
46.6633022781461 0.0475340891018337
46.6942057050765 0.137581272692994
46.7251091320068 0.111560689022717
46.7560125589371 0.0453651952338601
46.7869159858674 0.0863162198978507
46.8178194127977 -0.0155862369853108
46.848722839728 0.0164435388700905
46.8796262666583 0.102048404606911
46.9105296935886 0.0135497887965794
46.9414331205189 0.130411977153382
46.9723365474492 0.166920683963032
47.0032399743795 0.0605759092255309
47.0341434013098 -0.04576520420198
47.0650468282402 0.231825915109072
47.0959502551705 -0.1111150185556
47.1268536821008 0.157554851946863
47.1577571090311 0.0199783837593159
47.1886605359614 0.127941291167474
47.2195639628917 0.00376500274276559
47.250467389822 -0.249871910086237
47.2813708167523 0.148280552680466
47.3122742436826 -0.22588475181427
47.3431776706129 0.0695964621438434
47.3740810975432 0.186509908840519
47.4049845244735 0.147177016847185
47.4358879514039 0.040883500449556
47.4667913783342 0.0908436453619186
47.4976948052645 -0.0556211198442997
47.5285982321948 0.230953490545187
47.5595016591251 0.0978889051018079
47.5904050860554 -0.00392201903158051
47.6213085129857 -0.208407853283549
47.652211939916 0.118359973774473
47.6831153668463 -0.00129710928608562
47.7140187937766 -0.0718433881795102
47.7449222207069 -0.00399314862008726
47.7758256476372 0.0236821808207557
47.8067290745676 -0.136138828428411
47.8376325014979 -0.0204308918423646
47.8685359284282 0.00599499176795693
47.8994393553585 0.0904602509739849
47.9303427822888 0.0454648857757172
47.9612462092191 0.152258896173155
47.9921496361494 0.111735139309155
48.0230530630797 -0.15199924195914
48.05395649001 0.1333771809397
48.0848599169403 0.182150122291386
48.1157633438706 -0.10835898933265
48.1466667708009 0.150242703210448
48.1775701977313 0.136526628492108
48.2084736246616 -0.198614356344812
48.2393770515919 0.198391177271115
48.2702804785222 -0.194778199231538
48.3011839054525 0.121877514147228
48.3320873323828 0.0590726031216997
48.3629907593131 -0.0930143608795522
48.3938941862434 0.0450809078577588
48.4247976131737 0.02692983790506
48.455701040104 -0.0358604278805044
48.4866044670343 0.231710110501064
48.5175078939646 -0.107858546950232
48.548411320895 -0.0322449716629674
48.5793147478253 0.0210508363628605
48.6102181747556 -0.153328265729893
48.6411216016859 0.208010579201631
48.6720250286162 0.0247102283002887
48.7029284555465 -0.0425150327196344
48.7338318824768 -0.0874152038581384
48.7647353094071 0.0239382863133493
48.7956387363374 0.0772597235091137
48.8265421632677 -0.0390580351279892
48.857445590198 0.0901635818306139
48.8883490171283 -0.0127539970436494
48.9192524440587 -0.0620964860364928
48.950155870989 0.11177897199494
48.9810592979193 0.0535152341935059
49.0119627248496 0.0666837291306353
49.0428661517799 -0.0496084003365302
49.0737695787102 0.155531702934866
49.1046730056405 0.061568324659111
49.1355764325708 0.0970728934076317
49.1664798595011 -0.0817045908195704
49.1973832864314 0.172557300548933
49.2282867133617 0.14110856751314
49.259190140292 0.0560920672159115
49.2900935672224 0.0871506568001017
49.3209969941527 0.140534336265711
49.351900421083 -0.118578322958689
49.3828038480133 0.113384107698332
49.4137072749436 0.0641001996653428
49.4446107018739 -0.128037189914799
49.4755141288042 0.161971938957908
49.5064175557345 0.0769847291406061
49.5373209826648 0.17503689491901
49.5682244095951 -0.115300135135453
49.5991278365254 0.00954506754864548
49.6300312634557 -0.0709632113144076
49.6609346903861 -0.0398606860103263
49.6918381173164 0.169816929175174
49.7227415442467 -0.245501794329334
49.753644971177 -0.0759954279524231
49.7845483981073 0.106907456877336
49.8154518250376 -0.00482885412577083
49.8463552519679 0.093259924752541
49.8772586788982 -0.0407904922020128
49.9081621058285 0.249269895010567
49.9390655327588 0.267012514961709
49.9699689596891 0.155294510508557
50.0008723866194 0.083758738793966
50.0317758135498 0.101512342675081
50.0626792404801 0.19962675072333
50.0935826674104 0.101316248652998
50.1244860943407 0.132473693606943
50.155389521271 0.0564919427280217
50.1862929482013 -0.131093289698052
50.2171963751316 0.123289424900151
50.2480998020619 0.0249972293797742
50.2790032289922 0.185637266597959
50.3099066559225 -0.037647606302436
50.3408100828528 0.042642610678588
50.3717135097831 -0.140456368173254
50.4026169367135 0.118412599999181
50.4335203636438 0.015678086624463
50.4644237905741 0.0468758059883077
50.4953272175044 -0.0826370990521421
50.5262306444347 0.0199965143602561
50.557134071365 -0.00683049663164015
50.5880374982953 0.0779532965435967
50.6189409252256 0.153812179600254
50.6498443521559 -0.0917538474616704
50.6807477790862 -0.105173356070746
50.7116512060165 -0.0159106319412596
50.7425546329468 0.211748610641075
50.7734580598772 0.0331615145334005
50.8043614868075 0.0510066511642879
50.8352649137378 0.113498306248024
50.8661683406681 0.309922194070322
50.8970717675984 0.162599743202612
50.9279751945287 0.180459525073463
50.958878621459 -0.0695341746028371
50.9897820483893 -0.114167070112004
51.0206854753196 -0.0127785434808891
51.0515889022499 0.240399358745932
51.0824923291802 0.0159023508541711
51.1133957561105 0.327123289986688
51.1442991830409 -0.11611639528509
51.1752026099712 0.0790404378959795
51.2061060369015 0.0197366466727544
51.2370094638318 0.161329373902377
51.2679128907621 0.0350686195848486
51.2988163176924 0.310597240863025
51.3297197446227 0.157558094879763
51.360623171553 0.067022610206493
51.3915265984833 0.0613122154146422
51.4224300254136 0.109176910504211
51.4533334523439 0.148116695475199
51.4842368792742 -0.0986541439581079
51.5151403062046 0.00725724934714744
51.5460437331349 0.113172303962394
51.5769471600652 0.24141244845906
51.6078505869955 0.186620539980003
51.6387540139258 0.109510864239507
51.6696574408561 0.309190564094718
51.7005608677864 0.379409639545633
51.7314642947167 0.26213237630654
51.762367721647 -0.0337126541939918
51.7932711485773 -0.0304468805273896
51.8241745755076 0.160322554449204
51.8550780024379 0.0787742221643595
51.8859814293683 0.265086694046649
51.9168848562986 0.1165813986675
51.9477882832289 0.1689726217412
51.9786917101592 0.0785103632677484
52.0095951370895 0.215730337532859
52.0404985640198 -0.142581741177755
52.0714019909501 0.0705384128501945
52.1023054178804 0.22562651390242
52.1332088448107 0.0905397048360657
52.164112271741 -0.031150585777441
52.1950156986713 -0.134980072223813
52.2259191256016 0.283515531211233
52.256822552532 0.282371938813413
52.2877259794623 0.0981962934398708
52.3186294063926 0.159560023662033
52.3495328333229 0.167355986622757
52.3804362602532 0.0635484680363301
52.4113396871835 0.169566039331323
52.4422431141138 0.507730129079162
52.4731465410441 0.0244693087084222
52.5040499679744 0.0992478639333871
52.5349533949047 0.0981372233254856
52.565856821835 0.199708815456147
52.5967602487653 -0.00228735967462956
52.6276636756957 0.11268441221887
52.658567102626 0.00444555970807592
52.6894705295563 0.0792460827929857
52.7203739564866 -0.00219973281211283
52.7512773834169 -0.012213315678649
52.7821808103472 0.120633905621948
52.8130842372775 0.119556216803965
52.8439876642078 0.19437504643883
52.8748910911381 -0.0343738911877423
52.9057945180684 0.317237975352819
52.9366979449987 0.0349249317747993
52.967601371929 0.252615549506771
52.9985047988594 0.0863812571201619
53.0294082257897 0.366579197472115
53.06031165272 0.195887941991202
53.0912150796503 0.418057490677423
53.1221185065806 0.233980700673635
53.1530219335109 0.219550429122695
53.1839253604412 0.298873818881746
53.2148287873715 0.244272298522216
53.2457322143018 0.216460153758391
53.2766356412321 0.286865956018844
53.3075390681624 0.334953991017858
53.3384424950928 0.235724258755435
53.3693459220231 0.21239104494586
53.4002493489534 0.131025778160561
53.4311527758837 0.223771315542397
53.462056202814 0.338841942805651
53.4929596297443 0.230701945664612
53.5238630566746 0.461851324119277
53.5547664836049 0.416218649598218
53.5856699105352 0.334875350672866
53.6165733374655 0.316035713057504
53.6474767643958 0.234699736752132
53.6783801913261 0.456938850328181
53.7092836182565 0.143467339499934
53.7401870451868 0.46392806141025
53.7710904721171 0.195106730344842
53.8019938990474 0.408431917732283
53.8328973259777 0.202117909286857
53.863800752908 0.460093276437136
53.8947041798383 0.20467944775455
53.9256076067686 0.444804994667668
53.9565110336989 0.122434202890778
53.9874144606292 0.300067072423878
54.0183178875595 0.334846460409827
54.0492213144898 0.289272366848623
54.0801247414202 0.475844791740268
54.1110281683505 0.354385163656189
54.1419315952808 0.384714911167815
54.1728350222111 0.267726891418004
54.2037384491414 0.467706818692469
54.2346418760717 0.332868978705497
54.265545303002 0.211427657171373
54.2964487299323 0.375704282661526
54.3273521568626 0.334627426604525
54.3582555837929 0.284625660428946
54.3891590107232 0.368556126991928
54.4200624376535 0.492668826293472
54.4509658645839 0.130178044047865
54.4818692915142 0.223048065969392
54.5127727184445 0.244493177772338
54.5436761453748 0.20790623659956
54.5745795723051 0.211501528165345
54.6054829992354 0.0677790524696924
54.6363864261657 0.14281023808403
54.667289853096 0.365166513579788
54.6981932800263 0.453597878956965
54.7290967069566 0.233997191358419
54.7600001338869 0.134935879355578
54.7909035608172 0.183199657234157
54.8218069877476 0.258252810708441
54.8527104146779 0.534202482635572
54.8836138416082 0.198548673015552
54.9145172685385 0.170934238991237
54.9454206954688 0.0227877519911988
54.9763241223991 0.191609212015436
55.0072275493294 0.378291476206809
55.0381309762597 0.163191687422457
55.06903440319 0.349881274233811
55.0999378301203 0.1169316652123
55.1308412570506 0.258985717500777
55.1617446839809 0.432293431099247
55.1926481109113 0.0386405202934221
55.2235515378416 0.104812699369016
55.2544549647719 0.420988539754601
55.2853583917022 0.585382327164463
55.3162618186325 0.227458347312887
55.3471652455628 0.659716600199873
55.3780686724931 0.426799942968279
55.4089720994234 0.515315518475247
55.4398755263537 0.255620469577921
55.470778953284 0.317357653419157
55.5016823802143 0.240705641427526
55.5325858071446 0.347093005031601
55.563489234075 0.199019744231381
55.5943926610053 0.466128716169723
55.6252960879356 0.143955635132342
55.6561995148659 0.241429072547809
55.6871029417962 0.115691885558981
55.7180063687265 0.329244074165858
55.7489097956568 0.207978495511298
55.7798132225871 0.573323721023872
55.8107166495174 0.657422607846436
55.8416200764477 0.344203727407563
55.872523503378 0.414917079707252
55.9034269303083 0.387419807602647
55.9343303572387 0.333140482522318
55.965233784169 0.417257675894837
55.9961372110993 0.26923567343449
56.0270406380296 0.206038760855562
56.0579440649599 0.357131223872339
56.0888474918902 0.226977348199108
56.1197509188205 0.422719990978724
56.1506543457508 0.247930580782618
56.1815577726811 0.242787689039358
56.2124611996114 0.460862744320377
56.2433646265417 0.415548603768528
56.274268053472 0.312202410240956
56.3051714804024 0.222252735166232
56.3360749073327 0.489449578544357
56.366978334263 0.551292940375329
56.3978817611933 0.693497106373435
56.4287851881236 0.416062076538676
56.4596886150539 0.464523565156763
56.4905920419842 0.450488715084842
56.5214954689145 0.579314669180055
56.5523988958448 0.525108570299544
56.5833023227751 0.310191847014739
56.6142057497054 0.550635927897067
56.6451091766357 0.572333670089386
56.6760126035661 0.352963645020268
56.7069160304964 0.780918709832569
56.7378194574267 0.606198864526289
56.768722884357 0.743982680530001
56.7996263112873 0.493377300700846
56.8305297382176 0.532954153610254
56.8614331651479 0.465391810686794
56.8923365920782 0.670154557644756
56.9232400190085 0.825813823055564
56.9541434459388 0.686833892633508
56.9850468728691 0.409464766378584
57.0159502997994 0.859777872862222
57.0468537267298 0.69848749779871
57.0777571536601 0.568450784045187
57.1086605805904 0.612524874458799
57.1395640075207 0.513745483325258
57.170467434451 1.03996975350171
57.2013708613813 0.963519113559579
57.2322742883116 0.503143563498868
57.2631777152419 0.886521674748148
57.2940811421722 1.07793916159313
57.3249845691025 0.787217452605253
57.3558879960328 0.800070833498792
57.3867914229631 0.808463589988036
57.4176948498935 0.696324293501557
57.4485982768238 0.660081515467926
57.4795017037541 0.93187811303
57.5104051306844 0.748321229044922
57.5413085576147 0.792446577798406
57.572211984545 0.751754159290453
57.6031154114753 0.670886830663919
57.6340188384056 0.755201734775948
57.6649222653359 0.723448871626538
57.6958256922662 0.727413955501406
57.7267291191965 0.561739843543408
57.7576325461268 0.860355107181114
57.7885359730572 0.592009746414526
57.8194393999875 0.859382332672214
57.8503428269178 0.738365723097036
57.8812462538481 0.751281346260421
57.9121496807784 0.996343487876653
57.9430531077087 0.527123576517162
57.973956534639 0.807907326467662
58.0048599615693 0.677980452013867
58.0357633884996 0.655200096012922
58.0666668154299 0.793137687036251
58.0975702423602 0.538221796512429
58.1284736692905 0.640452424441455
58.1593770962209 0.617686713680472
58.1902805231512 0.474388949943766
58.2211839500815 0.942701990374193
58.2520873770118 0.594054406400326
58.2829908039421 0.495410483736449
58.3138942308724 0.530698793811135
58.3447976578027 0.427597908052955
58.375701084733 0.762000683604765
58.4066045116633 0.538371406180853
58.4375079385936 0.555817218638359
58.4684113655239 0.341123835262999
58.4993147924542 0.684469827483345
58.5302182193846 0.536748052442253
58.5611216463149 0.616708510139723
58.5920250732452 0.60738691486147
58.6229285001755 0.687354695178922
58.6538319271058 0.405718993949223
58.6847353540361 0.508015525458085
58.7156387809664 0.436208575419796
58.7465422078967 0.444762429548641
58.777445634827 0.359569944987476
58.8083490617573 0.479738264593445
58.8392524886876 0.425803102652262
58.8701559156179 0.380800173449642
58.9010593425483 0.420622334128441
58.9319627694786 0.214912441831516
58.9628661964089 0.268134782273154
58.9937696233392 0.432967926881926
59.0246730502695 0.401376161372117
59.0555764771998 0.351930914315156
59.0864799041301 0.266775042853901
59.1173833310604 0.467337118416923
59.1482867579907 0.315224283861363
59.179190184921 0.265793682044365
59.2100936118513 0.220831027251645
59.2409970387816 0.497300605197487
59.271900465712 0.318416701596177
59.3028038926423 0.166322173590572
59.3337073195726 0.33565987832353
59.3646107465029 0.540715530080765
59.3955141734332 0.236846271719418
59.4264176003635 0.174052103239491
59.4573210272938 0.227333024640984
59.4882244542241 0.155617607352467
59.5191278811544 0.289262994231085
59.5500313080847 0.199697756705407
59.580934735015 0.38245760906115
59.6118381619453 0.181292551298311
59.6427415888757 0.247988297702606
59.673645015806 0.350401991131178
59.7045484427363 0.207283631584026
59.7354518696666 0.131133219061152
59.7663552965969 0.211236467848268
59.7972587235272 0.23330766365966
59.8281621504575 0.250918235066758
59.8590655773878 0.25513961064099
59.8899690043181 0.406686076096641
59.9208724312484 0.178771917147998
59.9517758581787 0.290147133795059
59.982679285109 0.129204583180683
60.0135827120394 0.579872836733441
60.0444861389697 0.209116180167618
60.0753895659 0.307113184911786
60.1062929928303 0.150649565251659
60.1371964197606 0.0566896069015241
60.1680998466909 0.123447595575664
60.1990032736212 0.20806638841694
60.2299067005515 0.35965312828249
60.2608101274818 0.30588638660089
60.2917135544121 0.319087591943566
60.3226169813424 0.207292458596233
60.3535204082727 0.291929557987462
60.3844238352031 0.229248890117254
60.4153272621334 0.376393312128465
60.4462306890637 0.045862824021095
60.477134115994 0.139443140080859
60.5080375429243 0.237491403164901
60.5389409698546 0.322150470416076
60.5698443967849 0.130027484691527
60.6007478237152 0.317372445991254
60.6316512506455 0.201149640029545
60.6625546775758 0.116180495377826
60.6934581045061 0.169607869178956
60.7243615314364 0.236431761432933
60.7552649583668 0.428259314996901
60.7861683852971 0.213840529870861
60.8170718122274 0.173532548911953
60.8479752391577 0.405549657834466
60.878878666088 0.208998999495541
60.9097820930183 0.28030914532375
60.9406855199486 0.449837238176234
60.9715889468789 0.213118992338711
61.0024923738092 0.0701544078111778
61.0333958007395 0.467372056022207
61.0642992276698 0.177093365543228
61.0952026546001 0.409139764945667
61.1261060815305 0.431368397086669
61.1570095084608 0.609850690537662
61.1879129353911 0.391015216727218
61.2188163623214 0.475754832798193
61.2497197892517 0.364069538750587
61.280623216182 0.310423620298687
61.3115266431123 0.421959934585349
61.3424300700426 0.747785624467716
61.3733334969729 0.412900689945788
61.4042369239032 0.435162273876709
61.4351403508335 0.515463233403334
61.4660437777638 0.58683928281138
61.4969472046942 0.626968993529416
61.5278506316245 0.725138079843156
61.5587540585548 0.48848939889546
61.5896574854851 0.66255866497204
61.6205609124154 0.461631592358612
61.6514643393457 0.506243895340888
61.682367766276 0.716038431061727
61.7132711932063 0.631193770949699
61.7441746201366 0.582067057861948
61.7750780470669 0.519551148941331
61.8059814739972 0.582038901330704
61.8368849009275 0.559708886458641
61.8677883278579 0.769525390039425
61.8986917547882 0.680238412073057
61.9295951817185 1.00166938113097
61.9604986086488 0.711496868641723
61.9914020355791 0.961506588891042
62.0223054625094 0.907948541878923
62.0532088894397 0.582072727605368
62.08411231637 0.80084343178466
62.1150157433003 0.702653511559657
62.1459191702306 1.15803868121607
62.1768225971609 1.05539179789677
62.2077260240912 0.939355718744594
62.2386294510216 0.84564472947384
62.2695328779519 0.868008830084507
62.3004363048822 1.05109087771945
62.3313397318125 0.894890872378668
62.3622431587428 0.886015956919308
62.3931465856731 1.00214470276994
62.4240500126034 1.08702710993056
62.4549534395337 0.912984606972599
62.485856866464 1.00233862246749
62.5167602933943 0.99348201355808
62.5476637203246 1.05159335167295
62.5785671472549 1.00256549395495
62.6094705741853 1.04729129754695
62.6403740011156 1.02505647673465
62.6712774280459 0.962646745803768
62.7021808549762 1.04309781904002
62.7330842819065 0.904802553586265
62.7639877088368 0.962939520871072
62.7948911357671 1.20858014946587
62.8257945626974 0.998867296513514
62.8566979896277 0.998979533442579
62.887601416558 1.20891686025306
62.9185048434883 1.17778641980211
62.9494082704186 0.878802497804005
62.980311697349 0.736072237115891
63.0112151242793 0.807631352023482
63.0421185512096 0.955086985383921
63.0730219781399 0.986474851482923
63.1039254050702 0.830366378891915
63.1348288320005 0.674261567610898
63.1657322589308 0.794946131925587
63.1966356858611 0.812955786121694
63.2275391127914 0.630076244484936
63.2584425397217 1.04541464987245
63.289345966652 0.554506716569963
63.3202493935823 0.742173873148892
63.3511528205127 0.894130405323526
63.382056247443 0.889840598808151
63.4129596743733 0.778411596459909
63.4438631013036 0.876807683993087
63.4747665282339 0.961814575693399
63.5056699551642 0.743253700132274
63.5365733820945 0.801482200166853
63.5674768090248 0.59185721865428
63.5983802359551 0.70366446988027
63.6292836628854 0.601189668130536
63.6601870898157 0.619254241976508
63.691090516746 0.766786762846757
63.7219939436764 0.588430087884139
63.7528973706067 0.570791359945797
63.783800797537 0.687084864746018
63.8147042244673 0.67838203085623
63.8456076513976 0.500040001133576
63.8765110783279 0.736880204149484
63.9074145052582 0.857652639903955
63.9383179321885 0.790928736968415
63.9692213591188 0.599208495342867
64.0001247860491 0.733384772170168
64.0310282129794 0.586314710307459
64.0619316399097 0.613355452611884
64.0928350668401 0.278792713369157
64.1237384937704 0.462090778293564
64.1546419207007 0.480213933099391
64.185545347631 0.217090749215207
64.2164487745613 0.471828369498159
64.2473522014916 0.476569651091101
64.2782556284219 0.271493165422605
64.3091590553522 0.271777483921242
64.3400624822825 0.651529749444157
64.3709659092128 0.491107104848491
64.4018693361431 0.415509550134245
64.4327727630734 0.241701371015703
64.4636761900038 0.483075424635725
64.4945796169341 0.233381710994309
64.5254830438644 0.251548801520026
64.5563864707947 0.39918383907002
64.587289897725 0.314679680787147
64.6181933246553 0.310536326671409
64.6490967515856 0.498360919579947
64.6800001785159 0.422796316655619
64.7109036054462 0.33830680361271
64.7418070323765 0.151142380451221
64.7727104593068 0.22737447574258
64.8036138862371 0.169681660915359
64.8345173131675 0.366456793112413
64.8654207400978 0.197164158048031
64.8963241670281 0.206446612865068
64.9272275939584 0.171089871849239
64.9581310208887 0.256272506429114
64.989034447819 0.109315945176124
65.0199378747493 0.198970188090267
65.0508413016796 0.0296995208858304
65.0817447286099 0.119361086419955
65.1126481555402 0.217954884692643
65.1435515824705 0.0888737728467501
65.1744550094008 0.227653465167991
65.2053584363312 0.165543961656366
65.2362618632615 0.09450954802616
65.2671652901918 0.210978795705945
65.2980687171221 0.0953088475528636
65.3289721440524 0.0599997035669162
65.3598755709827 0.0604085066052455
65.390778997913 -0.0150718861892916
65.4216824248433 0.119272810897591
65.4525858517736 0.244692597865893
65.4834892787039 0.111187474715614
65.5143927056342 0.383936012875327
65.5452961325645 -0.084383216226398
65.5761995594949 0.18390835883901
65.6071029864252 0.0593464523572664
65.6380064133555 0.180323921471229
65.6689098402858 -0.0156592338191048
65.6998132672161 0.185682700771982
65.7307166941464 0.168278296673059
65.7616201210767 -0.0768010175444442
65.792523548007 -0.0361623847376706
65.8234269749373 0.218765623664808
65.8543304018676 0.0272687219487064
65.8852338287979 0.0500611958283095
65.9161372557282 0.0460716167321897
65.9470406826586 -0.0829143010539397
65.9779441095889 0.149710585327065
66.0088475365192 -0.0640894384105106
66.0397509634495 0.146221342019047
66.0706543903798 0.231535783758596
66.1015578173101 0.0177467439509931
66.1324612442404 0.0494970797390955
66.1633646711707 0.0767867911229025
66.194268098101 0.054973020959558
66.2251715250313 0.10012719782049
66.2560749519616 0.18992789313427
66.2869783788919 0.150267964043755
66.3178818058223 0.177575981977517
66.3487852327526 0.137923375506984
66.3796886596829 0.0625601446321564
66.4105920866132 0.0898791464958912
66.4414955135435 -0.088155333187526
66.4723989404738 -0.0697575801323809
66.5033023674041 -0.127249022910102
66.5342057943344 0.297406052765024
66.5651092212647 0.0613505040358571
66.596012648195 0.111012902330966
66.6269160751253 0.0267503905074937
66.6578195020556 0.125527254279727
66.688722928986 -0.00783507778090575
66.7196263559163 0.131127680039881
66.7505297828466 -0.118298757972199
66.7814332097769 0.17692132246857
66.8123366367072 0.199823635647901
66.8432400636375 0.245051038708651
66.8741434905678 0.0759963887936785
66.9050469174981 -0.276090314097018
66.9359503444284 0.193255215750848
66.9668537713587 0.0733186926229905
66.997757198289 -0.0823284549091619
67.0286606252193 0.199528058868677
67.0595640521497 0.0885310910993637
67.09046747908 0.0445020703543269
67.1213709060103 0.219226710919281
67.1522743329406 -0.0346164157772018
67.1831777598709 0.0820798331220205
67.2140811868012 0.0246726004740898
67.2449846137315 0.074411886279008
67.2758880406618 0.0973691191082025
67.3067914675921 0.303365727533103
67.3376948945224 0.232580282982279
67.3685983214527 0.224298499741446
67.399501748383 0.09548466352489
67.4304051753134 0.105067345761182
67.4613086022437 -0.0192748821211062
67.492212029174 0.119779408449453
67.5231154561043 -0.0491983539557102
67.5540188830346 0.138970402091974
67.5849223099649 0.0191071051639349
67.6158257368952 -0.0114668161683986
67.6467291638255 0.145462923809258
67.6776325907558 0.110432039382621
67.7085360176861 0.133440530551688
67.7394394446164 0.156452683030746
67.7703428715467 0.215182782534081
67.8012462984771 -0.0207263137954499
67.8321497254074 0.127296822613582
67.8630531523377 -0.0996763796673967
67.893956579268 -0.0409316349240978
67.9248600061983 0.0758524854149059
67.9557634331286 -0.0261097329360993
67.9866668600589 -0.0878897185485426
68.0175702869892 0.113726814291863
68.0484737139195 -0.0596529915577411
68.0793771408498 -0.108029136097354
68.1102805677801 0.0221698092444527
68.1411839947104 0.272908130181964
68.1720874216408 0.188828683858038
68.2029908485711 0.225288613129818
68.2338942755014 0.12335934656873
68.2647977024317 0.0348265984604916
68.295701129362 0.102547511662243
68.3266045562923 0.116700657602558
68.3575079832226 0.00585746485286309
68.3884114101529 0.033410790556017
68.4193148370832 0.150253491854875
68.4502182640135 -0.00968585982198933
68.4811216909438 -0.174085835903149
68.5120251178741 0.0131265214838314
68.5429285448045 0.102128254466517
68.5738319717348 0.0661336487591941
68.6047353986651 -0.126107295638138
68.6356388255954 -0.0326302930111941
68.6665422525257 0.167993228068598
68.697445679456 0.14094183902981
68.7283491063863 0.087108397015299
68.7592525333166 -0.0202928122606507
68.7901559602469 -0.00715464594089399
68.8210593871772 0.0863443245459954
68.8519628141075 0.184311242057162
68.8828662410378 0.161746106592605
68.9137696679682 -0.0304582247048177
68.9446730948985 0.152341105307749
68.9755765218288 -0.191641617655406
69.0064799487591 0.0492007492628579
69.0373833756894 0.0668324917768275
69.0682868026197 -0.0405321043992126
69.09919022955 0.0172855321633096
69.1300936564803 0.0170711157501087
69.1609970834106 0.0972175035040412
69.1919005103409 0.0166532668536794
69.2228039372712 0.105735548656166
69.2537073642015 -0.0551785082313576
69.2846107911319 0.109803953333968
69.3155142180622 0.136397219066426
69.3464176449925 -0.234327282462553
69.3773210719228 0.0779875916041735
69.4082244988531 0.0376275555523193
69.4391279257834 0.0731640379533132
69.4700313527137 0.0551327530928689
69.500934779644 0.345140843828131
69.5318382065743 0.175331167301954
69.5627416335046 -0.0346534193428023
69.5936450604349 0.0276870838938605
69.6245484873652 0.0275312484405141
69.6554519142956 0.0407719314400157
69.6863553412259 0.0361591328923656
69.7172587681562 -0.0755928614881509
69.7481621950865 -0.0355554802729618
69.7790656220168 -0.156228723462068
69.8099690489471 0.0387990565484837
69.8408724758774 0.131151926440455
69.8717759028077 -0.0532772566432973
69.902679329738 0.0569400787257988
69.9335827566683 0.0868039325477428
69.9644861835986 0.0139928762511063
69.9953896105289 0.186721195550176
70.0262930374593 -0.015546823840765
70.0571964643896 0.0679031037925713
70.0880998913199 0.0754638355930415
70.1190033182502 0.19017108584636
70.1499067451805 0.0057748545525258
70.1808101721108 0.133882284568683
70.2117135990411 0.445029090180546
70.2426170259714 -0.0518561571833156
70.2735204529017 0.00929797104852836
70.304423879832 -0.206329953695351
70.3353273067623 0.0110814971564754
70.3662307336926 0.161532323604006
70.397134160623 -0.143370331495614
70.4280375875533 0.225837817571898
70.4589410144836 -0.0656646577648825
70.4898444414139 0.120515099636898
70.5207478683442 0.212948518348669
70.5516512952745 0.20270702694186
70.5825547222048 -0.164673660297815
70.6134581491351 -0.0722292576560708
70.6443615760654 0.198790234867093
70.6752650029957 -0.110543754156895
70.706168429926 0.0667330609862504
70.7370718568563 -0.104200748274899
70.7679752837867 -0.0251308962260577
70.798878710717 0.067335474275632
70.8297821376473 -0.0991230653412583
70.8606855645776 0.247814913494699
70.8915889915079 0.0992208393549325
70.9224924184382 -0.116333859189128
70.9533958453685 -0.0595634678517696
70.9842992722988 -0.0295751294901345
71.0152026992291 0.375416870181492
71.0461061261594 -0.107980325979748
71.0770095530897 0.207733282026146
71.10791298002 0.041307694199173
71.1388164069504 0.031135767682192
71.1697198338807 -0.17546106895337
71.200623260811 0.399195755721058
71.2315266877413 0.0720705274197639
71.2624301146716 -0.0363010395715393
71.2933335416019 -0.0598475166814243
71.3242369685322 0.130895381804398
71.3551403954625 0.0761062273144946
71.3860438223928 0.0391778769917264
71.4169472493231 -0.167389669163908
71.4478506762534 -0.0352288790028972
71.4787541031837 0.150507001039534
71.5096575301141 0.0192822566776694
71.5405609570444 -0.00926025494563243
71.5714643839747 0.113986609026771
71.602367810905 0.29527284859488
71.6332712378353 -0.0234372505270204
71.6641746647656 0.0462491688039268
71.6950780916959 0.173974963730581
71.7259815186262 -0.0286527228899192
71.7568849455565 -0.0660981767718556
71.7877883724868 0.208960030656198
71.8186917994171 0.0822361851085294
71.8495952263474 -0.0801982848434344
71.8804986532778 0.127906620800307
71.9114020802081 0.0503009020397531
71.9423055071384 -0.129979726839381
71.9732089340687 0.0826004484486189
72.004112360999 0.0630414279037526
72.0350157879293 -0.0859782170454091
72.0659192148596 0.0953629421725637
72.0968226417899 0.182957762700527
72.1277260687202 0.0473419588241955
72.1586294956505 -0.0123773265992879
72.1895329225808 -0.0363786649984945
72.2204363495111 0.028909372198004
72.2513397764415 0.152236784990208
72.2822432033718 0.0211035733781162
72.3131466303021 0.148902594504587
72.3440500572324 0.00884813408390661
72.3749534841627 0.16790447783036
72.405856911093 -0.0123212313989103
72.4367603380233 -0.174686136461047
72.4676637649536 0.185274048358236
72.4985671918839 -0.146726391226776
72.5294706188142 -0.0546160266446538
72.5603740457445 0.17142657067603
72.5912774726748 0.0671156864495632
72.6221808996052 -0.0104058221811996
72.6530843265355 0.215647759069458
72.6839877534658 0.18724071591582
72.7148911803961 -0.109019808784971
72.7457946073264 0.0277590421099454
72.7766980342567 0.0216844114577088
72.807601461187 0.0468634421154635
72.8385048881173 0.0631175626546372
72.8694083150476 0.284732487360945
72.9003117419779 0.144743930520101
72.9312151689082 -0.0220266792964665
72.9621185958385 0.221920657911242
72.9930220227689 -0.0966283435710573
73.0239254496992 -0.098209398029081
73.0548288766295 0.226106065965744
73.0857323035598 0.126318048413416
73.1166357304901 0.129212263599651
73.1475391574204 -0.113425574189837
73.1784425843507 0.26447596361638
73.209346011281 -0.121011694410269
73.2402494382113 0.122968594587358
73.2711528651416 0.183916830609262
73.3020562920719 -0.00513127205884345
73.3329597190022 -0.198639999131244
73.3638631459326 0.00744923213434046
73.3947665728629 0.14657783899563
73.4256699997932 0.187495821452624
73.4565734267235 -0.0305111062089627
73.4874768536538 0.291664198868013
73.5183802805841 -0.145085406173591
73.5492837075144 -0.0595099213337758
73.5801871344447 -0.0676807751839701
73.611090561375 -0.0178122534384593
73.6419939883053 0.143667072474186
73.6728974152356 0.162292916839679
73.7038008421659 0.207708136800877
73.7347042690963 -0.0325872676422199
73.7656076960266 -0.17466472506104
73.7965111229569 0.36183290740156
73.8274145498872 0.0188699154598644
73.8583179768175 -0.145517986600411
73.8892214037478 0.207954915506447
73.9201248306781 0.244467193209009
73.9510282576084 -0.0270525820641505
73.9819316845387 0.223752732544108
74.012835111469 0.037061708462359
74.0437385383993 -0.0424827971665427
74.0746419653296 0.248512072800261
74.10554539226 0.0529034612199122
74.1364488191903 0.11176279666384
74.1673522461206 0.246518650560617
74.1982556730509 0.336635308624526
74.2291590999812 0.105327056569856
74.2600625269115 0.271343894396605
74.2909659538418 -0.040314177895227
74.3218693807721 0.076602839694361
74.3527728077024 0.13102351859394
74.3836762346327 0.0381264302320807
74.414579661563 -0.202088425391216
74.4454830884933 0.120200380295479
74.4763865154237 -0.0530428669935499
74.507289942354 -0.159318167258302
74.5381933692843 0.0870887652155079
74.5690967962146 0.0790350732850227
74.6000002231449 0.0843778998073863
74.6309036500752 -0.00402561236025933
74.6618070770055 -0.0567111775036286
74.6927105039358 0.033464061520136
74.7236139308661 0.0834643904253203
74.7545173577964 0.0531112377833525
74.7854207847267 0.0316903178799466
74.816324211657 0.170987345000818
74.8472276385874 -0.15846196656832
74.8781310655177 -0.179439518338268
74.909034492448 0.165658019773202
74.9399379193783 0.0330806477660928
74.9708413463086 -0.117350205788169
75.0017447732389 -0.124920255175297
