'Id: "" Comment: "" Operator: "Lab Manager" Anode: "Cu" Scantype: "Coupled TwoTheta/Theta" TimePerStep: "224" 
25 -0.123071863857948
25.0309034269303 -0.0416816951004151
25.0618068538606 -0.0451084206359473
25.0927102807909 0.130040816678312
25.1236137077212 -0.19034112601478
25.1545171346515 0.00267432271334833
25.1854205615819 -0.206091408565875
25.2163239885122 0.0896116801475504
25.2472274154425 0.0951407317107682
25.2781308423728 -0.0153971110190803
25.3090342693031 -0.0455732766134229
25.3399376962334 -0.0802091936436882
25.3708411231637 -0.119304862109876
25.401744550094 -0.0333959962977
25.4326479770243 0.15519597522141
25.4635514039546 0.241113909590311
25.4944548308849 -0.199749336048139
25.5253582578152 -0.07364376169394
25.5562616847456 0.320323489795765
25.5871651116759 -0.142847581579024
25.6180685386062 -0.110478404389736
25.6489719655365 -0.122747550064942
25.6798753924668 0.114161832178418
25.7107788193971 0.132325748700141
25.7416822463274 0.132637056643085
25.7725856732577 0.190988613150106
25.803489100188 0.200237561078347
25.8343925271183 -0.0583660995721917
25.8652959540486 -0.151786654515796
25.8961993809789 0.120868753390391
25.9271028079093 -0.14664987585363
25.9580062348396 0.17065745775214
25.9889096617699 -0.221852102935154
26.0198130887002 0.198142870655914
26.0507165156305 0.0690352356682022
26.0816199425608 -0.0422107221840036
26.1125233694911 -0.14898786004356
26.1434267964214 0.061203822089531
26.1743302233517 -0.0321713900704435
26.205233650282 -0.0139349250949112
26.2361370772123 -0.183193925841016
26.2670405041426 0.0671944648340994
26.297943931073 0.0541945326447206
26.3288473580033 -0.182015150980581
26.3597507849336 0.0282082711010521
26.3906542118639 0.171471941746762
26.4215576387942 0.212061575242264
26.4524610657245 0.114262885873271
26.4833644926548 -0.112995554931643
26.5142679195851 0.141893395684662
26.5451713465154 -0.0362488337063835
26.5760747734457 0.187399185466647
26.606978200376 0.0494445960608987
26.6378816273063 0.0498873980763705
26.6687850542367 0.175334734370205
26.699688481167 0.0284651763709745
26.7305919080973 0.0958858669358209
26.7614953350276 -0.11793890822097
26.7923987619579 0.0521694223291744
26.8233021888882 0.0794251443005387
26.8542056158185 -0.112064599449734
26.8851090427488 -0.107121237493072
26.9160124696791 0.121040944456238
26.9469158966094 0.0501005178267691
26.9778193235397 0.113093196904234
27.00872275047 -0.00694530402565219
27.0396261774004 0.100699300751396
27.0705296043307 -0.0729015601931922
27.101433031261 -0.0991764582879893
27.1323364581913 0.178124606467005
27.1632398851216 0.0893587769289339
27.1941433120519 0.0229189102406551
27.2250467389822 0.291305006402168
27.2559501659125 -0.0519115060151001
27.2868535928428 -0.0201234841540048
27.3177570197731 -0.122259499443118
27.3486604467034 -0.13243585658562
27.3795638736337 0.236856606264526
27.4104673005641 -0.0634892537498217
27.4413707274944 0.136169420514193
27.4722741544247 -0.101667370943428
27.503177581355 0.08014322902017
27.5340810082853 0.168208363262132
27.5649844352156 0.166992317496742
27.5958878621459 -0.0618977654188559
27.6267912890762 -0.112211885484662
27.6576947160065 -0.00180718555782011
27.6885981429368 -0.194969379924044
27.7195015698671 0.26365867427381
27.7504049967974 0.0705055484643133
27.7813084237278 -0.0601430430668213
27.8122118506581 0.112784328251836
27.8431152775884 -0.0178551947225718
27.8740187045187 0.150616959438526
27.904922131449 0.100343647877987
27.9358255583793 -0.101710843689904
27.9667289853096 -0.000189372408002431
27.9976324122399 -0.0058062239905956
28.0285358391702 0.0957243158480319
28.0594392661005 0.143687961393594
28.0903426930308 0.124691855503233
28.1212461199611 0.0878431410340919
28.1521495468915 0.0376061037004569
28.1830529738218 -0.0349478279262434
28.2139564007521 0.15143134615399
28.2448598276824 0.0610293402268733
28.2757632546127 0.019739011435262
28.306666681543 0.0722032169220137
28.3375701084733 0.396993385258557
28.3684735354036 -0.0192833406979651
28.3993769623339 0.176051610481019
28.4302803892642 -0.0125374754902059
28.4611838161945 0.0622708299597896
28.4920872431248 0.0879765268310053
28.5229906700552 0.0377939008377268
28.5538940969855 -0.00791990516290264
28.5847975239158 0.120477965971974
28.6157009508461 0.088166085670927
28.6466043777764 0.212108739648244
28.6775078047067 0.260163070761066
28.708411231637 0.317150507580823
28.7393146585673 -0.0499646641782001
28.7702180854976 -0.00189673023028814
28.8011215124279 0.305104309424558
28.8320249393582 0.156752740500624
28.8629283662885 0.276262848712197
28.8938317932189 0.319884634059274
28.9247352201492 0.421546667970429
28.9556386470795 -0.0883939066971946
28.9865420740098 0.0980986243421151
29.0174455009401 0.253345689659788
29.0483489278704 0.328240146398682
29.0792523548007 0.260281994558795
29.110155781731 0.607506948425844
29.1410592086613 0.508307865142682
29.1719626355916 0.257327601852171
29.2028660625219 0.385816158554308
29.2337694894522 0.0946663923919511
29.2646729163826 0.656199731936528
29.2955763433129 0.467737605759468
29.3264797702432 0.453387156717915
29.3573831971735 0.247076956240439
29.3882866241038 0.388985575755611
29.4191900510341 0.521970158120575
29.4500934779644 0.315673560478188
29.4809969048947 0.46652435425702
29.511900331825 0.465593968028502
29.5428037587553 0.728060973221204
29.5737071856856 0.530711084120841
29.6046106126159 0.485151443584554
29.6355140395463 0.493167765898059
29.6664174664766 0.742260051061356
29.6973208934069 0.669928299074445
29.7282243203372 0.776172509937325
29.7591277472675 0.498492683649997
29.7900311741978 0.859210248783888
29.8209346011281 0.639575205339
29.8518380280584 0.991373267601048
29.8827414549887 0.557461578427171
29.913644881919 0.900340137817372
29.9445483088493 0.667330374343079
29.9754517357796 0.586110859432864
30.00635516271 0.571860164515297
30.0372585896403 0.803149718161807
30.0681620165706 0.779979520372395
30.0990654435009 0.81484957114706
30.1299688704312 0.738117013342946
30.1608722973615 0.728353275531479
30.1917757242918 0.839129786284091
30.2226791512221 0.878482259886494
30.2535825781524 0.761589267767261
30.2844860050827 0.515236524212104
30.315389432013 0.951924029221024
30.3462928589433 0.839508925651165
30.3771962858737 0.526205499216812
30.408099712804 1.06112089277511
30.4390031397343 0.899612249183194
30.4699065666646 0.849715282726788
30.5008099935949 0.697144279120173
30.5317134205252 0.901720666934777
30.5626168474555 0.499158731884888
30.5935202743858 0.83767275968479
30.6244237013161 0.671727036048769
30.6553271282464 0.595071560976827
30.6862305551767 0.69252776304039
30.717133982107 0.673917070810887
30.7480374090374 0.802632341431176
30.7789408359677 0.850995003472685
30.809844262898 0.653826485506844
30.8407476898283 0.577198216105078
30.8716511167586 0.478253052410248
30.9025545436889 0.718598137279495
30.9334579706192 0.539304899284248
30.9643613975495 0.324301909853078
30.9952648244798 0.582517740414557
31.0261682514101 0.456809533825827
31.0570716783404 0.57217729008689
31.0879751052707 0.236656723483458
31.1188785322011 0.535069262586961
31.1497819591314 0.373664907397397
31.1806853860617 0.19887222934334
31.211588812992 0.635691228424789
31.2424922399223 0.434121904641744
31.2733956668526 0.464699972279919
31.3042990937829 0.472961145625028
31.3352025207132 0.387476853248501
31.3661059476435 0.364497095150336
31.3970093745738 0.301343299901963
31.4279128015041 0.260515467503382
31.4588162284344 0.451835026526021
31.4897196553648 0.259230548398451
31.5206230822951 0.267523461692102
31.5515265092254 0.307070909264116
31.5824299361557 0.315372891114492
31.613333363086 0.0826079786718039
31.6442367900163 0.260561886221763
31.6751402169466 0.0635203280500867
31.7060436438769 0.28612616129963
31.7369470708072 0.544450814541821
31.7678504977375 0.267065716348091
31.7987539246678 0.248613723861295
31.8296573515981 0.100701979938575
31.8605607785285 0.104580484579934
31.8914642054588 0.0548920949282263
31.9223676323891 0.286458239554882
31.9532710593194 0.312671775602758
31.9841744862497 0.155854131643284
32.01507791318 -0.219708978037829
32.0459813401103 0.0118753037022792
32.0768847670406 0.212214119720751
32.1077881939709 -0.0919068156967016
32.1386916209012 0.19772678316421
32.1695950478315 0.286472059160627
32.2004984747618 0.0404004408639791
32.2314019016922 0.00415478541712222
32.2623053286225 0.115235092820058
32.2932087555528 0.239712791644213
32.3241121824831 0.132052167603874
32.3550156094134 0.216360363556184
32.3859190363437 0.0953159509297135
32.416822463274 0.206418929724464
32.4477258902043 0.174669299940434
32.4786293171346 0.174174204434768
32.5095327440649 0.155826500350321
32.5404361709952 0.0481976162585234
32.5713395979255 -0.046033876412054
32.6022430248559 0.0874177366243032
32.6331464517862 -0.0603761160609766
32.6640498787165 0.0150488512463922
32.6949533056468 0.295835495689267
32.7258567325771 0.107876674410504
32.7567601595074 0.129743815981534
32.7876635864377 0.106972634688069
32.818567013368 0.0172417019586817
32.8494704402983 0.4141224463648
32.8803738672286 0.217257725049282
32.9112772941589 0.399861823726412
32.9421807210892 0.377113313824762
32.9730841480196 -0.0250949475128106
33.0039875749499 0.260201325427981
33.0348910018802 0.26871641836142
33.0657944288105 0.0629503312875088
33.0966978557408 0.20093877849196
33.1276012826711 0.477324617117631
33.1585047096014 -0.0721778671211917
33.1894081365317 0.333681325775492
33.220311563462 0.324366481521967
33.2512149903923 0.194520457261091
33.2821184173226 0.439678967278577
33.3130218442529 0.421449154431571
33.3439252711833 0.278223875862925
33.3748286981136 0.563574560144073
33.4057321250439 0.161429778703583
33.4366355519742 0.580718102970029
33.4675389789045 0.424118104371979
33.4984424058348 0.530915497195149
33.5293458327651 0.548431710010969
33.5602492596954 0.463273885676581
33.5911526866257 0.409370595620554
33.622056113556 0.654578982700035
33.6529595404863 0.765863332629307
33.6838629674166 0.658402216836941
33.714766394347 0.510767063894368
33.7456698212773 0.546172159515872
33.7765732482076 0.407474646558595
33.8074766751379 0.630388810736825
33.8383801020682 0.80866465205056
33.8692835289985 0.589623599071231
33.9001869559288 0.723265651798836
33.9310903828591 0.919412238804803
33.9619938097894 0.722706217231991
33.9928972367197 0.731361872794685
34.02380066365 0.784664919778598
34.0547040905803 0.904936786755161
34.0856075175107 1.1457489022958
34.116510944441 0.940136980686233
34.1474143713713 0.770243879069313
34.1783177983016 0.9932124545879
34.2092212252319 1.10011413581342
34.2401246521622 1.02844892274588
34.2710280790925 1.10857395824241
34.3019315060228 1.17084638516016
34.3328349329531 0.916159060641991
34.3637383598834 1.23736912754504
34.3946417868137 1.14786944301217
34.425545213744 0.879802864186231
34.4564486406744 0.82602653392437
34.4873520676047 1.46421902365516
34.518255494535 0.972951761950024
34.5491589214653 1.34329617738039
34.5800623483956 1.09310941280341
34.6109657753259 1.4679271825048
34.6418692022562 1.40078520077026
34.6727726291865 1.50775489617123
34.7036760561168 1.48526484013627
34.7345794830471 1.49402931837968
34.7654829099774 1.46708404518716
34.7963863369077 1.60085759198729
34.8272897638381 1.37302853020864
34.8581931907684 1.3818111455655
34.8890966176987 1.57363400948644
34.920000044629 1.67617569340002
34.9509034715593 1.43050762587769
34.9818068984896 1.74287980691943
35.0127103254199 1.69811366509667
35.0436137523502 1.59085205755228
35.0745171792805 1.96127355571482
35.1054206062108 1.92098530244144
35.1363240331411 1.75123729773214
35.1672274600714 1.86720811301549
35.1981308870018 2.00996917686291
35.2290343139321 1.92952048927441
35.2599377408624 1.99193347882142
35.2908411677927 2.02310100264679
35.321744594723 2.08552306075052
35.3526480216533 1.89348536741833
35.3835514485836 2.30413077979308
35.4144548755139 2.0228164407319
35.4453583024442 2.17007806452051
35.4762617293745 2.2816299368732
35.5071651563048 2.18782920064712
35.5380685832351 2.3083187129851
35.5689720101655 2.39309847388717
35.5998754370958 2.55823991192474
35.6307788640261 2.2144573128121
35.6616822909564 2.32603639083497
35.6925857178867 2.37958428885049
35.723489144817 2.38402957828723
35.7543925717473 2.28580083057376
35.7852959986776 2.33936233142437
35.8161994256079 2.42864265226762
35.8471028525382 2.04024893596067
35.8780062794685 2.53132403964637
35.9089097063988 2.23668939189614
35.9398131333292 2.13848784985285
35.9707165602595 2.37064798494506
36.0016199871898 2.76352694002993
36.0325234141201 2.42873185796458
36.0634268410504 2.3126913101776
36.0943302679807 2.36183386809755
36.125233694911 2.55383810315301
36.1561371218413 2.46906115820111
36.1870405487716 2.2548244618133
36.2179439757019 1.99594944256099
36.2488474026322 2.4692218147299
36.2797508295625 2.14339157832003
36.3106542564929 2.32203016190281
36.3415576834232 1.99620899404966
36.3724611103535 1.9471780747606
36.4033645372838 2.06779454689275
36.4342679642141 2.11252269616041
36.4651713911444 1.73314823684929
36.4960748180747 2.16181402610224
36.526978245005 1.93869863534785
36.5578816719353 1.84505206458611
36.5887850988656 1.87194574238844
36.6196885257959 1.64884395446913
36.6505919527262 1.80967527225676
36.6814953796566 1.71158255289418
36.7123988065869 1.59563722495282
36.7433022335172 1.47076785986126
36.7742056604475 1.3325101719052
36.8051090873778 1.22104273251321
36.8360125143081 1.52922268454245
36.8669159412384 1.29276431370719
36.8978193681687 1.26166762000744
36.928722795099 1.23057546058605
36.9596262220293 1.27984497830016
36.9905296489596 1.16394045886407
37.0214330758899 1.13286190227777
37.0523365028203 1.00357359425555
37.0832399297506 1.11089696336883
37.1141433566809 0.932510581046195
37.1450467836112 0.87912873300192
37.1759502105415 0.580215704950292
37.2068536374718 0.772378639748455
37.2377570644021 0.799367537396411
37.2686604913324 0.594218112179873
37.2995639182627 0.96943036409884
37.330467345193 0.813397150296171
37.3613707721233 0.768975613629007
37.3922741990536 0.630808611240207
37.423177625984 0.573003285986912
37.4540810529143 0.537523923583409
37.4849844798446 0.769906238315412
37.5158879067749 0.738900230182921
37.5467913337052 0.529327327757363
37.5776947606355 0.596544673895884
37.6085981875658 0.409302268598482
37.6395016144961 0.387242969008015
37.6704050414264 0.476795346553053
37.7013084683567 0.387780829805026
37.732211895287 0.205020847335361
37.7631153222173 0.392801113429774
37.7940187491477 0.134157342373979
37.824922176078 0.317482391310833
37.8558256030083 0.125811974526049
37.8867290299386 0.260038949162486
37.9176324568689 0.282663315220143
37.9485358837992 -0.0295292130152665
37.9794393107295 0.644889935884831
38.0103427376598 0.310385047634719
38.0412461645901 0.2794561222344
38.0721495915204 0.400317445398158
38.1030530184507 0.21761187426885
38.133956445381 0.101875123132191
38.1648598723114 0.106678620559609
38.1957632992417 0.227558080836819
38.226666726172 0.335049218249535
38.2575701531023 0.482723461369186
38.2884735800326 0.0545093816243414
38.3193770069629 0.0637998361578602
38.3502804338932 0.104344824969743
38.3811838608235 0.274358633774274
38.4120872877538 0.256876976857168
38.4429907146841 0.132256997075568
38.4738941416144 0.0835344087151872
38.5047975685447 0.222316354633171
38.5357009954751 0.0530671205438025
38.5666044224054 -0.00903472212434542
38.5975078493357 0.196725112343013
38.628411276266 0.277489481088734
38.6593147031963 0.0859369555413894
38.6902181301266 0.202424678558122
38.7211215570569 0.314452650138932
38.7520249839872 0.189878013140962
38.7829284109175 0.0295936247070703
38.8138318378478 0.14163519912297
38.8447352647781 0.204574164960089
38.8756386917084 0.164839093647
38.9065421186388 0.47332284232656
38.9374455455691 0.286275410998768
38.9683489724994 -0.0302317717649458
38.9992523994297 0.113087008321131
39.03015582636 0.0287317512570002
39.0610592532903 0.154202457042661
39.0919626802206 0.0653919828209708
39.1228661071509 0.0346217571633574
39.1537695340812 0.182427494355536
39.1846729610115 0.133809194397506
39.2155763879418 0.0718025715749815
39.2464798148721 0.206229054459392
39.2773832418025 0.0147672144793081
39.3082866687328 -0.0204400912224121
39.3391900956631 0.25685713735423
39.3700935225934 -0.15780538550505
39.4009969495237 0.0837866259140325
39.431900376454 -0.0183668283885221
39.4628038033843 -0.160694319841284
39.4937072303146 0.0220953816198306
39.5246106572449 0.0307824745021659
39.5555140841752 0.280545530234293
39.5864175111055 0.195491691673354
39.6173209380358 0.0300852445336357
39.6482243649662 0.199504760243709
39.6791277918965 0.00285738166071692
39.7100312188268 0.185678823070373
39.7409346457571 0.297076227329822
39.7718380726874 0.0200853087247759
39.8027414996177 0.0734560672552358
39.833644926548 0.251831360064058
39.8645483534783 0.202532615722673
39.8954517804086 0.0237741199453647
39.9263552073389 0.170913015589277
39.9572586342692 -0.0658721259170196
39.9881620611995 0.0544901239979043
40.0190654881299 0.125749765334048
40.0499689150602 0.0987996552342696
40.0808723419905 0.0584612222699969
40.1117757689208 -0.227408390701627
40.1426791958511 -0.0489877551091737
40.1735826227814 -0.0223482995240718
40.2044860497117 -0.0760614525177497
40.235389476642 0.160408500195507
40.2662929035723 0.169204415758555
40.2971963305026 0.0708620084571097
40.3280997574329 0.307345564005455
40.3590031843632 -0.112416346167836
40.3899066112936 0.133004849365808
40.4208100382239 0.119502007749243
40.4517134651542 -0.139532013874673
40.4826168920845 0.342509927351202
40.5135203190148 0.239734974284012
40.5444237459451 0.17267884120947
40.5753271728754 -0.0283013290152798
40.6062305998057 0.110008749324048
40.637134026736 0.159037647656024
40.6680374536663 0.0250353659806488
40.6989408805966 0.163359047155065
40.7298443075269 0.145437262607845
40.7607477344573 0.283770012338988
40.7916511613876 0.0649644392056365
40.8225545883179 0.292591971779219
40.8534580152482 0.158616895774022
40.8843614421785 0.122860639761474
40.9152648691088 0.171930346598718
40.9461682960391 0.154040302000038
40.9770717229694 0.0290119345368653
41.0079751498997 0.256666672780626
41.03887857683 0.0780759453027513
41.0697820037603 0.479846894960381
41.1006854306906 0.305729521753517
41.131588857621 0.0601881113964446
41.1624922845513 0.162865521032022
41.1933957114816 0.109297464945961
41.2242991384119 -0.136230342576022
41.2552025653422 0.363782098466072
41.2861059922725 0.3102276452151
41.3170094192028 0.0691777262424922
41.3479128461331 0.234382341548247
41.3788162730634 0.149591491132364
41.4097196999937 0.314805174994845
41.440623126924 0.274666250278546
41.4715265538543 0.399710431269182
41.5024299807847 0.319402003681037
41.533333407715 0.323919538942684
41.5642368346453 0.127548751339837
41.5951402615756 0.257075355158211
41.6260436885059 0.208035064683518
41.6569471154362 -0.0463578343699536
41.6878505423665 0.400146657997795
41.7187539692968 0.21719139892962
41.7496573962271 0.119062102711237
41.7805608231574 0.172723055056932
41.8114642500877 0.369245684538132
41.842367677018 0.44523713401198
41.8732711039484 0.266768832049907
41.9041745308787 0.445447921509054
41.935077957809 0.333952973817992
41.9659813847393 0.226926846119579
41.9968848116696 0.151155252699528
42.0277882385999 0.280745336414984
42.0586916655302 0.459447097265945
42.0895950924605 0.245296249538128
42.1204985193908 0.23204279323153
42.1514019463211 0.218793871203295
42.1823053732514 0.192156626310566
42.2132088001817 0.442309629981914
42.2441122271121 0.321931453645912
42.2750156540424 0.272986383016843
42.3059190809727 0.224045846666138
42.336822507903 0.300109844593796
42.3677259348333 0.349392662514102
42.3986293617636 0.349572871855628
42.4295327886939 0.0819004726183752
42.4604362156242 0.0195897505166278
42.4913396425545 0.162640705550386
42.5222430694848 0.234267623433936
42.5531464964151 0.421970504167278
42.5840499233454 0.319499347750412
42.6149533502758 0.181318439897622
42.6458567772061 0.480642066323196
42.6767602041364 0.266577369884275
42.7076636310667 0.293588636295147
42.738567057997 0.244711579841524
42.7694704849273 0.204767629094835
42.8003739118576 0.356792498340796
42.8312773387879 0.557929044722262
42.8621807657182 0.348355839667805
42.8930841926485 0.250394311748855
42.9239876195788 0.38904446096541
42.9548910465091 0.456270573031757
42.9857944734395 0.215465505090753
43.0166979003698 0.492522114285255
43.0476013273001 0.211547543472405
43.0785047542304 0.31450607836649
43.1094081811607 0.551397718967509
43.140311608091 0.350793893846892
43.1712150350213 0.44930174586178
43.2021184619516 0.565671275012175
43.2330218888819 0.409723909869503
43.2639253158122 0.418959650433766
43.2948287427425 0.602307068133535
43.3257321696728 0.562444734397381
43.3566355966032 0.357408363511019
43.3875390235335 0.522912241188734
43.4184424504638 0.683956367430527
43.4493458773941 0.487862170807825
43.4802493043244 0.519451079892058
43.5111527312547 0.501937380397511
43.542056158185 0.346035358038471
43.5729595851153 0.51603072710065
43.6038630120456 0.315494916155478
43.6347664389759 0.440856496631525
43.6656698659062 0.454615468528794
43.6965732928365 0.615700403275853
43.7274767197669 0.348218443729848
43.7583801466972 0.527169589890777
43.7892835736275 0.384696698901497
43.8201870005578 0.728835485047724
43.8510904274881 0.613157376900885
43.8819938544184 0.586769517318122
43.9128972813487 0.457707620585153
43.943800708279 0.373293115273403
43.9747041352093 0.485311715668587
44.0056075621396 0.472334850342134
44.0365109890699 0.584362519294045
44.0674144160002 0.473180436810032
44.0983178429306 0.473610031461526
44.1292212698609 0.523151303248526
44.1601246967912 0.478947109313888
44.1910281237215 0.5642117353719
44.2219315506518 0.515552324279704
44.2528349775821 0.63207601889444
44.2837384045124 0.48967567635897
44.3146418314427 0.284779868101862
44.345545258373 0.544174308408831
44.3764486853033 0.375001854422735
44.4073521122336 0.304048220429288
44.4382555391639 0.393813406428489
44.4691589660943 0.30054741242034
44.5000623930246 0.493000238404838
44.5309658199549 0.551529027239129
44.5618692468852 0.37345520749464
44.5927726738155 0.431993064885657
44.6236761007458 0.378928313697893
44.6545795276761 0.18301095393135
44.6854829546064 0.219240985586028
44.7163863815367 0.402796980090495
44.747289808467 0.492607508873328
44.7781932353973 0.305636857648808
44.8090966623276 0.413313597845509
44.840000089258 0.244209158034859
44.8709035161883 0.231359252502571
44.9018069431186 0.361371024105789
44.9327103700489 0.125315901415942
44.9636137969792 0.451765313004458
44.9945172239095 0.175540687442766
45.0254206508398 0.403784881873722
45.0563240777701 0.390962182011613
45.0872275047004 0.467429730713581
45.1181309316307 0.557294670836769
45.149034358561 0.00877128809546335
45.1799377854913 0.272752439632521
45.2108412124217 0.0903095540193695
45.241744639352 0.456978345541724
45.2726480662823 0.225437385628156
45.3035514932126 0.212650959992951
45.3344549201429 0.271297640064681
45.3653583470732 0.0620917115576307
45.3962617740035 0.281461745900372
45.4271652009338 0.139229171664333
45.4580686278641 0.456822560278087
45.4889720547944 0.109241911741631
45.5198754817247 0.158987226054968
45.550778908655 0.190879931789524
45.5816823355854 0.419205743231015
45.6125857625157 0.277000374665155
45.643489189446 0.228549540377657
45.6743926163763 0.162246097511381
45.7052960433066 0.274518617494895
45.7361994702369 -0.144454328243227
45.7671028971672 0.0883629745827279
45.7980063240975 -0.0136366168843827
45.8289097510278 0.138832611641155
45.8598131779581 0.398449231587914
45.8907166048884 0.412534671527321
45.9216200318187 0.118588931459377
45.9525234587491 0.324647725669795
45.9834268856794 -0.214824660127137
46.0143303126097 -0.0132210830742774
46.04523373954 0.0901727425426593
46.0761371664703 0.273928245295101
46.1070405934006 -0.194097431959807
46.1379440203309 0.23073856792079
46.1688474472612 0.115400530651179
46.1997508741915 0.0893527419456444
46.2306543011218 -0.0304405124815261
46.2615577280521 0.122092195941094
46.2924611549824 0.31480801007065
46.3233645819128 0.288778358478568
46.3542680088431 0.294003241164849
46.3851714357734 0.0804826581294935
46.4160748627037 0.295538037943929
46.446978289634 0.349883666322443
46.4778817165643 0.359590971836462
46.5087851434946 0.128231383057415
46.5396885704249 0.0888406142710174
46.5705919973552 0.138740094048697
46.6014954242855 0.00114410810473986
46.6323988512158 0.20283837072486
46.6633022781461 0.185787167623343
46.6942057050765 0.00356192737161765
46.7251091320068 0.0802697928268268
46.7560125589371 0.0810893354175417
46.7869159858674 0.0372705551437629
46.8178194127977 0.359527737719776
46.848722839728 -0.0458891168544202
46.8796262666583 0.0531628485640323
46.9105296935886 0.116505062546563
46.9414331205189 0.336101810807456
46.9723365474492 0.109274521918141
47.0032399743795 0.427094624450046
47.0341434013098 0.235990689831743
47.0650468282402 0.21453414663466
47.0959502551705 -0.0122750051412037
47.1268536821008 0.149313234504154
47.1577571090311 0.0609060084278741
47.1886605359614 0.151074745201386
47.2195639628917 -0.106966269461025
47.250467389822 0.380532964440642
47.2813708167523 0.180536732620671
47.3122742436826 0.00733074936477784
47.3431776706129 0.146629300387248
47.3740810975432 0.125218099973796
47.4049845244735 0.340418576695848
47.4358879514039 -0.0827692694465925
47.4667913783342 0.132440275832187
47.4976948052645 0.307475783960758
47.5285982321948 0.0316229692248342
47.5595016591251 0.0772032601958452
47.5904050860554 -0.136140485983351
47.6213085129857 -0.0749018256073146
47.652211939916 0.330091369047085
47.6831153668463 -0.0640180448772956
47.7140187937766 0.385627075476688
47.7449222207069 0.00491958725189079
47.7758256476372 0.347430919019743
47.8067290745676 0.225661070780243
47.8376325014979 0.398538613961964
47.8685359284282 0.151777834279191
47.8994393553585 0.199664446017638
47.9303427822888 0.0466627348915907
47.9612462092191 0.0722369866153354
47.9921496361494 0.298708629760299
48.0230530630797 -0.028386621387801
48.05395649001 0.0150583760281746
48.0848599169403 0.379936479151086
48.1157633438706 0.0528548308380743
48.1466667708009 -0.0554722831965746
48.1775701977313 -0.00308057723857447
48.2084736246616 0.406458520140645
48.2393770515919 -0.0723907053446289
48.2702804785222 0.207693174877032
48.3011839054525 0.13956730366277
48.3320873323828 1.73952982995829E-05
48.3629907593131 0.164043449783621
48.3938941862434 0.149502609975876
48.4247976131737 0.175144875875066
48.455701040104 0.147220247481191
48.4866044670343 0.123764439079963
48.5175078939646 0.122634593528528
48.548411320895 0.206330710826885
48.5793147478253 0.258781362403604
48.6102181747556 0.23534369111583
48.6411216016859 0.399410554106418
48.6720250286162 0.317946237089655
48.7029284555465 0.160593597208398
48.7338318824768 0.0925312058912189
48.7647353094071 0.0691162059952597
48.7956387363374 0.286777168949092
48.8265421632677 -0.125021619532999
48.857445590198 0.0167555548347025
48.8883490171283 0.00228726348076647
48.9192524440587 0.0280020778337651
48.950155870989 0.236757140750841
48.9810592979193 0.191052452231994
49.0119627248496 0.114102297991511
49.0428661517799 0.0773352494579616
49.0737695787102 0.129858449488489
49.1046730056405 0.235957612368809
49.1355764325708 0.230454166670349
49.1664798595011 -0.0339733161783191
49.1973832864314 0.277496592394232
49.2282867133617 0.26307817810229
49.259190140292 0.208485726660139
49.2900935672224 0.104790666639208
49.3209969941527 -0.0524712876747877
49.351900421083 -0.0713358505675639
49.3828038480133 0.0481969779608806
49.4137072749436 -0.12690851637517
49.4446107018739 0.0685262378528582
49.4755141288042 0.0318226692163917
49.5064175557345 0.120123634858287
49.5373209826648 0.16378627763569
49.5682244095951 -0.0737965453085452
49.5991278365254 0.447553737454155
49.6300312634557 0.0135514116380753
49.6609346903861 0.0884821915289291
49.6918381173164 -0.0196182085875671
49.7227415442467 0.108893068431442
49.753644971177 0.201694594014528
49.7845483981073 0.138250653875978
49.8154518250376 0.280168390872932
49.8463552519679 -0.0109450521374632
49.8772586788982 0.113124610559075
49.9081621058285 0.0586273789625484
49.9390655327588 0.111277538787242
49.9699689596891 0.0121465186045833
50.0008723866194 0.024627175557431
50.0317758135498 0.0638980810743566
50.0626792404801 0.210316378012501
50.0935826674104 -0.0762965050567042
50.1244860943407 0.00763086043816719
50.155389521271 0.39513418878283
50.1862929482013 0.112999194262999
50.2171963751316 -0.0396669802641831
50.2480998020619 0.263028522344141
50.2790032289922 0.0567999878022558
50.3099066559225 0.0693259875387344
50.3408100828528 0.188999378696432
50.3717135097831 0.219391589846779
50.4026169367135 0.0667526209897757
50.4335203636438 0.284653900696849
50.4644237905741 0.279345428967999
50.4953272175044 -0.0563156513396299
50.5262306444347 0.183920659773961
50.557134071365 0.0491615051659151
50.5880374982953 0.235835456264804
50.6189409252256 0.217156798784912
50.6498443521559 0.189554104154812
50.6807477790862 0.0503488009459327
50.7116512060165 0.192398032015416
50.7425546329468 0.303201797363263
50.7734580598772 0.0970458112751866
50.8043614868075 0.158751502322616
50.8352649137378 -0.0786454152087339
50.8661683406681 0.250926487252564
50.8970717675984 0.285860066849369
50.9279751945287 0.0395481807245366
50.958878621459 -0.00140202826479019
50.9897820483893 0.0826522970242465
51.0206854753196 0.032782585163075
51.0515889022499 0.282024550437409
51.0824923291802 0.133949621418677
51.1133957561105 0.133200655249738
51.1442991830409 0.0342419376448748
51.1752026099712 -0.185247959967339
51.2061060369015 -0.0304241564424177
51.2370094638318 -0.0318458186391335
51.2679128907621 0.359594196299657
51.2988163176924 0.152824459802524
51.3297197446227 0.0844521147266115
51.360623171553 0.261620018214777
51.3915265984833 0.108435313124161
51.4224300254136 0.187397999454767
51.4533334523439 0.199400934349449
51.4842368792742 0.309622689236781
51.5151403062046 0.187706121259618
51.5460437331349 0.0166869447036753
51.5769471600652 0.24745801671181
51.6078505869955 0.0898407658554512
51.6387540139258 0.137585192134598
51.6696574408561 0.341584152692107
51.7005608677864 0.117016218956552
51.7314642947167 0.231738533785073
51.762367721647 0.1455725257491
51.7932711485773 0.175482480562919
51.8241745755076 0.294682683940815
51.8550780024379 0.0567445644542168
51.8859814293683 0.354525264960268
51.9168848562986 0.250524785458968
51.9477882832289 0.159921697378887
51.9786917101592 0.176466000720027
52.0095951370895 0.184086266910959
52.0404985640198 0.620282495951682
52.0714019909501 0.25291183069934
52.1023054178804 0.0150099854396459
52.1332088448107 0.219076960172601
52.164112271741 0.530291326326777
52.1950156986713 0.229903083902173
52.2259191256016 0.353626518613074
52.256822552532 0.129140201888053
52.2877259794623 0.337694133727109
52.3186294063926 0.546252599844527
52.3495328333229 0.201244171668882
52.3804362602532 0.208918849200169
52.4113396871835 0.346062346724107
52.4422431141138 0.242138949954978
52.4731465410441 0.303398658892784
52.5040499679744 0.275377187823238
52.5349533949047 0.153610251032056
52.565856821835 0.272919277090665
52.5967602487653 0.316339980284779
52.6276636756957 0.341908074900114
52.658567102626 0.380873560936671
52.6894705295563 0.379665009823018
52.7203739564866 0.14631813584487
52.7512773834169 0.301368653287943
52.7821808103472 0.237673705009379
52.8130842372775 0.218626148152036
52.8439876642078 0.186190268430198
52.8748910911381 0.113580351558152
52.9057945180684 0.192760683250183
52.9366979449987 0.441588406363435
52.967601371929 0.57434923518362
52.9985047988594 0.211578883996455
53.0294082257897 0.406848781373367
53.06031165272 0.303016070171499
53.0912150796503 0.150080750390851
53.1221185065806 0.215899964888566
53.1530219335109 0.250473713664644
53.1839253604412 0.0752305681476573
53.2148287873715 0.199099099766176
53.2457322143018 0.514936451377344
53.2766356412321 0.52274262298116
53.3075390681624 0.53948190029191
53.3384424950928 0.0696185690238811
53.3693459220231 0.430116914891358
53.4002493489534 0.478119795037198
53.4311527758837 0.508270066604258
53.462056202814 0.283960586735394
53.4929596297443 0.327512784002038
53.5238630566746 0.330890944118473
53.5547664836049 0.5440950670847
53.5856699105352 0.596589438615003
53.6165733374655 0.408016915852242
53.6474767643958 0.339984641653556
53.6783801913261 0.347849758876093
53.7092836182565 0.34679083894842
53.7401870451868 0.680557881870538
53.7710904721171 0.389329459071021
53.8019938990474 0.566855570549865
53.8328973259777 0.597064787735645
53.863800752908 0.448707110628359
53.8947041798383 0.586068253513722
53.9256076067686 0.174326787820305
53.9565110336989 0.320625570690965
53.9874144606292 0.395500316411417
54.0183178875595 0.519486739267375
54.0492213144898 0.514013410687409
54.0801247414202 0.468366044957236
54.1110281683505 0.637008927791139
54.1419315952808 0.511013487760549
54.1728350222111 0.541272582008322
54.2037384491414 0.656357639105887
54.2346418760717 0.490197230481815
54.265545303002 0.667791356136105
54.2964487299323 0.47931858749733
54.3273521568626 0.451564638851204
54.3582555837929 0.548815224483441
54.3891590107232 0.378213201536898
54.4200624376535 0.542437141440147
54.4509658645839 0.287022758478901
54.4818692915142 0.580720052653162
54.5127727184445 0.526207595391499
54.5436761453748 0.369021100979628
54.5745795723051 0.457374855131835
54.6054829992354 0.48769742927669
54.6363864261657 0.299274537699909
54.667289853096 0.798356180401491
54.6981932800263 0.288513785952864
54.7290967069566 0.350104497211172
54.7600001338869 0.456342599890699
54.7909035608172 0.424192379705732
54.8218069877476 0.298296693799129
54.8527104146779 0.413476970742318
54.8836138416082 0.595626067678155
54.9145172685385 0.447422556035212
54.9454206954688 0.558152150099204
54.9763241223991 0.253707707012987
55.0072275493294 0.368910655347991
55.0381309762597 0.475189566532785
55.06903440319 0.572544440567372
55.0999378301203 0.232403848880322
55.1308412570506 0.624410648614492
55.1617446839809 0.212850554055597
55.1926481109113 0.58700927948935
55.2235515378416 0.340636824915752
55.2544549647719 0.51837604747766
55.2853583917022 0.401476947175073
55.3162618186325 0.418510952579422
55.3471652455628 0.373049492262133
55.3780686724931 0.34544970908035
55.4089720994234 0.72410446017693
55.4398755263537 0.45990660269473
55.470778953284 0.240356136633751
55.5016823802143 0.453845919136849
55.5325858071446 0.421804521632595
55.563489234075 0.304946229835276
55.5943926610053 0.464878186602034
55.6252960879356 0.231957534790013
55.6561995148659 0.449934274399212
55.6871029417962 0.194701262572488
55.7180063687265 0.243044213595556
55.7489097956568 0.501213127468416
55.7798132225871 0.27724371847678
55.8107166495174 0.490778843763509
55.8416200764477 0.123961360471457
55.872523503378 0.190184125743483
55.9034269303083 0.457304282436728
55.9343303572387 0.353893259122624
55.965233784169 0.388879627229738
55.9961372110993 0.696191958186645
56.0270406380296 0.324937394850485
56.0579440649599 0.422437365792689
56.0888474918902 0.622620442441828
56.1197509188205 0.443343767655044
56.1506543457508 0.536393055718051
56.1815577726811 0.223196878059422
56.2124611996114 0.49929094896487
56.2433646265417 0.154853839862966
56.274268053472 0.33720697932514
56.3051714804024 0.171350367351391
56.3360749073327 0.389426861084576
56.366978334263 0.571793603381839
56.3978817611933 0.678272022814609
56.4287851881236 0.329397833668598
56.4596886150539 0.435885321658092
56.4905920419842 0.60487734392595
56.5214954689145 0.586373900472171
56.5523988958448 0.304482134153898
56.5833023227751 0.710094902113988
56.6142057497054 0.338926490066727
56.6451091766357 0.342762612297828
56.6760126035661 0.583210411664436
56.7069160304964 0.546877031023692
56.7378194574267 0.56411961323274
56.768722884357 0.532259586863008
56.7996263112873 0.803975523343068
56.8305297382176 0.602481708387206
56.8614331651479 0.798313856281134
56.8923365920782 0.730757681310569
56.9232400190085 0.917670326332652
56.9541434459388 0.738516077061669
56.9850468728691 0.447759219211908
57.0159502997994 0.991828324211937
57.0468537267298 0.522509106347473
57.0777571536601 0.490694422761371
57.1086605805904 0.548169987739347
57.1395640075207 0.708328658424258
57.170467434451 0.640813291958959
57.2013708613813 0.881338174057739
57.2322742883116 0.68436759043488
57.2631777152419 0.728472969661815
57.2940811421722 0.727940026024255
57.3249845691025 0.468483045236487
57.3558879960328 0.731352027298509
57.3867914229631 0.623689829353181
57.4176948498935 0.672282165686216
57.4485982768238 0.618200464869042
57.4795017037541 0.702516155473089
57.5104051306844 0.974336380355499
57.5413085576147 0.817589710944843
57.572211984545 0.625133290098264
57.6031154114753 0.606788546387191
57.6340188384056 0.972376908383053
57.6649222653359 0.864755518942992
57.6958256922662 0.618745806638438
57.7267291191965 0.738812057183674
57.7576325461268 0.733882842007273
57.7885359730572 0.90306530396638
57.8194393999875 0.799930871632419
57.8503428269178 0.826265259291108
57.8812462538481 0.682961324085303
57.9121496807784 0.686983351729289
57.9430531077087 0.896367056508782
57.973956534639 1.05218386699521
58.0048599615693 1.02943378318857
58.0357633884996 1.03793823366029
58.0666668154299 1.00180436126752
58.0975702423602 0.711210737438831
58.1284736692905 0.733121647888501
58.1593770962209 1.04967994975939
58.1902805231512 0.754635643051502
58.2211839500815 0.923881584907691
58.2520873770118 0.977060632470813
58.2829908039421 0.954351357169442
58.3138942308724 0.953968044717862
58.3447976578027 1.0294821236875
58.375701084733 0.984465022649792
58.4066045116633 0.975166741604729
58.4375079385936 1.07748013769517
58.4684113655239 0.590512353778265
58.4993147924542 0.585691961282578
58.5302182193846 0.96926896020811
58.5611216463149 0.669814779126292
58.5920250732452 0.870365132322836
58.6229285001755 0.512884305512031
58.6538319271058 0.624158012979586
58.6847353540361 0.699721969011221
58.7156387809664 0.596719030749788
58.7465422078967 0.761577769623863
58.777445634827 0.747869614204871
58.8083490617573 0.5288088502071
58.8392524886876 0.541895477630549
58.8701559156179 0.541593782189504
58.9010593425483 0.568082335312535
58.9319627694786 0.59457542271393
58.9628661964089 0.790715901536546
58.9937696233392 0.946682343208953
59.0246730502695 0.727653319159723
59.0555764771998 0.325593115103142
59.0864799041301 0.387823159610638
59.1173833310604 0.441129166967925
59.1482867579907 0.302475422889291
59.179190184921 0.498647641660447
59.2100936118513 0.168038680424253
59.2409970387816 0.873148539180706
59.271900465712 0.453262932215524
59.3028038926423 0.363739002385846
59.3337073195726 0.158148178263104
59.3646107465029 0.582026174133011
59.3955141734332 0.38090870428128
59.4264176003635 0.202117197279341
59.4573210272938 0.550115938841479
59.4882244542241 0.402583500396266
59.5191278811544 0.134519881943702
59.5500313080847 0.500389369198071
59.580934735015 0.187691962159376
59.6118381619453 0.352677660827616
59.6427415888757 0.388203608059932
59.673645015806 0.374626946713469
59.7045484427363 0.43248339107394
59.7354518696666 0.468022941141345
59.7663552965969 0.436602739772828
59.7972587235272 0.177508501254103
59.8281621504575 0.280025939870884
59.8590655773878 0.324512198480313
59.8899690043181 0.194895848510962
59.9208724312484 0.467069747105688
59.9517758581787 0.605319608550207
59.982679285109 0.37750257570166
60.0135827120394 0.404154362845761
60.0444861389697 0.261167827125369
60.0753895659 0.0646143971119106
60.1062929928303 0.36360121566253
60.1371964197606 0.550985425634369
60.1680998466909 0.595517027027429
60.1990032736212 0.376660305555995
60.2299067005515 0.443522404077209
60.2608101274818 0.345210465448215
60.2917135544121 0.389760203954726
60.3226169813424 0.300385905311029
60.3535204082727 0.0815518552314103
60.3844238352031 0.335936625144439
60.4153272621334 0.550147357907261
60.4462306890637 0.447398339234159
60.477134115994 0.59465385483942
60.5080375429243 0.380306761865902
60.5389409698546 0.366857060313603
60.5698443967849 0.478411893039669
60.6007478237152 0.505149831472667
60.6316512506455 0.420285161326887
60.6625546775758 0.469353596888042
60.6934581045061 0.536283709584701
60.7243615314364 0.491611213702581
60.7552649583668 0.397836109241681
60.7861683852971 0.420136967630573
60.8170718122274 0.442442360297828
60.8479752391577 0.545109430100588
60.878878666088 0.45135246275314
60.9097820930183 0.464742886826913
60.9406855199486 0.402244988036191
60.9715889468789 0.580823052095261
61.0024923738092 0.473691364718409
61.0333958007395 0.308528497334204
61.0642992276698 0.451405878514078
61.0952026546001 0.571966365400886
61.1261060815305 0.6791385294232
61.1570095084608 0.576493799152448
61.1879129353911 0.420282174588631
61.2188163623214 0.59443222716032
61.2497197892517 0.406979671153229
61.280623216182 0.393638792281643
61.3115266431123 0.643695304831278
61.3424300700426 0.581256351659276
61.3733334969729 0.800071932765637
61.4042369239032 0.590320619578932
61.4351403508335 0.603788126384877
61.4660437777638 0.603867310326326
61.4969472046942 0.782522457117568
61.5278506316245 0.688860709615745
61.5587540585548 0.715739210677998
61.5896574854851 0.648872246018614
61.6205609124154 0.738259815637594
61.6514643393457 1.01515191953494
61.682367766276 0.577762843424927
61.7132711932063 0.894842587307567
61.7441746201366 0.886034008325714
61.7750780470669 0.95312282076508
61.8059814739972 0.944323310339952
61.8368849009275 0.886421191336044
61.8677883278579 0.792809320896214
61.8986917547882 0.989380556163317
61.9295951817185 1.00292061142307
61.9604986086488 0.837893772389757
61.9914020355791 1.06572861049195
62.0223054625094 1.11053226858679
62.0532088894397 0.914269032388569
62.08411231637 1.00818890189728
62.1150157433003 1.02175616282721
62.1459191702306 0.999613672321219
62.1768225971609 1.03104714466502
62.2077260240912 1.04016372271575
62.2386294510216 1.04928483504485
62.2695328779519 1.27269619593803
62.3004363048822 1.24611209110956
62.3313397318125 1.02756823484518
62.3622431587428 0.974207484287729
62.3931465856731 1.20656555372293
62.4240500126034 0.996963871722202
62.4549534395337 1.12665243828556
62.485856866464 0.7786669676987
62.5167602933943 1.20747174567592
62.5476637203246 1.26128105793151
62.5785671472549 1.0517020473226
62.6094705741853 1.09659185670634
62.6403740011156 1.0298790575113
62.6712774280459 1.14620650688033
62.7021808549762 0.892002776242021
62.7330842819065 0.869946437024926
62.7639877088368 0.776466060657624
62.7948911357671 0.799061647140113
62.8257945626974 1.15201891075811
62.8566979896277 0.830873565797325
62.887601416558 0.862411326543474
62.9185048434883 0.791275050139416
62.9494082704186 0.769250450870863
62.980311697349 0.970444671594959
63.0112151242793 1.03325056945456
63.0421185512096 1.1362395730211
63.0730219781399 0.953518825151712
63.1039254050702 0.708302611560688
63.1348288320005 0.851483789390885
63.1657322589308 0.775919501499445
63.1966356858611 0.673574033600654
63.2275391127914 0.758733099980225
63.2584425397217 0.785860986352446
63.289345966652 0.911207692717315
63.3202493935823 0.567808933360548
63.3511528205127 0.777986136853572
63.382056247443 0.586382160339245
63.4129596743733 0.658175575246138
63.4438631013036 0.801402095859965
63.4747665282339 0.609811722180727
63.5056699551642 0.730725882779852
63.5365733820945 0.699858863371626
63.5674768090248 0.561853521098905
63.5983802359551 0.80778128453312
63.6292836628854 0.620677867959982
63.6601870898157 0.652328985665208
63.691090516746 0.563448923363083
63.7219939436764 0.903144823910749
63.7528973706067 0.733916687308206
63.783800797537 0.631657370698313
63.8147042244673 0.614224016938211
63.8456076513976 0.753045197456472
63.8765110783279 0.771335197967383
63.9074145052582 0.816415447042369
63.9383179321885 0.482035944681434
63.9692213591188 0.379803833741719
64.0001247860491 0.670433399937509
64.0310282129794 0.670888928983092
64.0619316399097 0.291884706592751
64.0928350668401 0.395027875623631
64.1237384937704 0.716925578932874
64.1546419207007 0.50757781652048
64.185545347631 0.490198874100734
64.2164487745613 0.704967323102209
64.2473522014916 0.495633163524905
64.2782556284219 0.326482109654533
64.3091590553522 0.693049875776812
64.3400624822825 0.452479319034596
64.3709659092128 1.06012758228503
64.4018693361431 0.538316094099539
64.4327727630734 0.672759140192412
64.4636761900038 0.668813863420792
64.4945796169341 0.504158835213248
64.5254830438644 0.54486548414121
64.5563864707947 0.473969524490393
64.587289897725 0.465578099117938
64.6181933246553 0.403619779452418
64.6490967515856 0.435415994065261
64.6800001785159 0.538645314385039
64.7109036054462 0.467772026126037
64.7418070323765 0.566546129288255
64.7727104593068 0.482289052443121
64.8036138862371 0.518572224162065
64.8345173131675 0.0905742158736578
64.8654207400978 0.202759313292185
64.8963241670281 0.252448944989075
64.9272275939584 0.471785968107186
64.9581310208887 0.258091811217945
64.989034447819 0.307795045749924
65.0199378747493 0.384288528845981
65.0508413016796 0.237572260506115
65.0817447286099 0.224789097873183
65.1126481555402 -0.00673953048138554
65.1435515824705 0.315307804013838
65.1744550094008 0.128431101358852
65.2053584363312 0.396916075839373
65.2362618632615 0.143084156026828
65.2671652901918 0.299971056206933
65.2980687171221 0.412219633522541
65.3289721440524 0.2164370308308
65.3598755709827 0.172444676703136
65.390778997913 0.235599713996693
65.4216824248433 0.106794999854325
65.4525858517736 0.12531624856175
65.4834892787039 0.282234888690396
65.5143927056342 0.309693777383118
65.5452961325645 0.270192914639918
65.5761995594949 0.489625157603652
65.6071029864252 0.0795976491314638
65.6380064133555 0.0892175320804949
65.6689098402858 0.13009194930789
65.6998132672161 0.162042329385077
65.7307166941464 0.12703295802634
65.7616201210767 0.17238526380311
65.792523548007 0.150777818143957
65.8234269749373 0.129174906763167
65.8543304018676 0.143290815375026
65.8852338287979 0.00116125826524671
65.9161372557282 0.176000521148118
65.9470406826586 0.221380032595066
65.9779441095889 0.150692649748948
66.0088475365192 -0.0494544845330926
66.0397509634495 0.120938629748944
66.0706543903798 0.32705056402363
66.1015578173101 0.122452746862393
66.1324612442404 0.185716606836662
66.1633646711707 0.22219928680358
66.194268098101 0.0220793581917174
66.2251715250313 0.00946396385821791
66.2560749519616 0.157567389517368
66.2869783788919 0.0288896351691665
66.3178818058223 0.181466415099328
66.3487852327526 0.271547729307852
66.3796886596829 0.0535978635090255
66.4105920866132 0.0410096748457045
66.4414955135435 0.0552117347464609
66.4723989404738 -0.225224528217276
66.5033023674041 0.306843743097349
66.5342057943344 0.035345120118909
66.5651092212647 0.420101031418832
66.596012648195 0.206647191282832
66.6269160751253 0.0780193139966237
66.6578195020556 0.0788602567030643
66.688722928986 0.102027162259296
66.7196263559163 0.245734316379606
66.7505297828466 0.295696004778278
66.7814332097769 0.189412227455314
66.8123366367072 -0.0150813013035727
66.8432400636375 0.0348939899301888
66.8741434905678 0.0491595297280281
66.9050469174981 0.268786746661372
66.9359503444284 0.162525640730224
66.9668537713587 0.0428762119345802
66.997757198289 0.0705527459887283
67.0286606252193 -0.258909042821617
67.0595640521497 -0.0673091547620084
67.09046747908 0.0707238390045348
67.1213709060103 -0.0635600615219878
67.1522743329406 -0.144267999198718
67.1831777598709 0.150028597402915
67.2140811868012 0.323794013997195
67.2449846137315 0.158278250584125
67.2758880406618 -0.105447264264868
67.3067914675921 0.0370817551645031
67.3376948945224 -0.0569918339849065
67.3685983214527 0.308760539715476
67.399501748383 -0.0665539808772082
67.4304051753134 0.250100318522757
67.4613086022437 0.392652009343943
67.492212029174 0.115565377300634
67.5231154561043 0.0349118509642601
67.5540188830346 0.208727144620535
67.5849223099649 0.235225543983743
67.6158257368952 -0.113271522374684
67.6467291638255 -0.0108711973118925
67.6776325907558 0.0424265191721203
67.7085360176861 -0.0694498014940756
67.7394394446164 -0.087571587881909
67.7703428715467 0.0327040171514787
67.8012462984771 0.0324484421775146
67.8321497254074 0.134875972910485
67.8630531523377 0.0899866093503903
67.893956579268 -0.137933934217056
67.9248600061983 0.147542913636718
67.9557634331286 -0.21876141851686
67.9866668600589 0.156010212179355
68.0175702869892 -0.0540350514174959
68.0484737139195 0.097531362121158
68.0793771408498 0.0124951670810334
68.1102805677801 0.0881777920335569
68.1411839947104 0.181722094121586
68.1720874216408 -0.0595504980834498
68.2029908485711 0.199181443989877
68.2338942755014 0.0427393489129955
68.2647977024317 -0.180662497599808
68.295701129362 0.15844019016575
68.3266045562923 0.0689759836382442
68.3575079832226 0.131302025674815
68.3884114101529 -0.105474540867394
68.4193148370832 0.229181998297331
68.4502182640135 0.157593071740419
68.4811216909438 0.0056515366047285
68.5120251178741 0.242107392890257
68.5429285448045 0.148210640597006
68.5738319717348 0.107889851153546
68.6047353986651 0.16132359598845
68.6356388255954 0.201369017958859
68.6665422525257 0.201240402779061
68.697445679456 0.0716520361633393
68.7283491063863 0.0179610609688377
68.7592525333166 0.245524620052699
68.7901559602469 0.0891641419863527
68.8210593871772 -0.147548944658774
68.8519628141075 0.0398496458316053
68.8828662410378 0.142431342028919
68.9137696679682 0.209303286790311
68.9446730948985 -0.152391662741364
68.9755765218288 -0.0631892208518181
69.0064799487591 -0.0588036732553379
69.0373833756894 -0.081199305666209
69.0682868026197 0.155338167629854
69.09919022955 -0.233119824795719
69.1300936564803 -0.0367518543715009
69.1609970834106 0.0301563646167948
69.1919005103409 0.0970691178834535
69.2228039372712 -0.161906451714382
69.2537073642015 0.0612653701090022
69.2846107911319 0.0522988690678927
69.3155142180622 -0.0727345262662822
69.3464176449925 0.00759375553504826
69.3773210719228 0.0700694287575994
69.4082244988531 -0.144236078027201
69.4391279257834 -0.0460370505336378
69.4700313527137 0.0566307969525739
69.500934779644 0.0298388930028626
69.5318382065743 -0.104091333811343
69.5627416335046 0.369125830795672
69.5936450604349 0.00752610110962193
69.6245484873652 0.137002334273363
69.6554519142956 0.06559024457261
69.6863553412259 -0.0683173108497805
69.7172587681562 -0.00132747485094997
69.7481621950865 0.0254883239976715
69.7790656220168 -0.0771556285896291
69.8099690489471 -0.0949736183271384
69.8408724758774 -0.0770727880719995
69.8717759028077 -0.00559599496706786
69.902679329738 0.106063903844798
69.9335827566683 -0.018878805922117
69.9644861835986 -0.0411384099820964
69.9953896105289 -0.13928633690657
70.0262930374593 0.119713127590176
70.0571964643896 -0.0141400164918579
70.0880998913199 0.0305828022759003
70.1190033182502 0.0395958696077359
70.1499067451805 0.133434899789363
70.1808101721108 0.17817132139221
70.2117135990411 0.0934479915591346
70.2426170259714 0.00872919600442224
70.2735204529017 0.0847292204423584
70.304423879832 -0.249980506555628
70.3353273067623 -0.0818546046821709
70.3662307336926 0.108597260041078
70.397134160623 -0.116124912385881
70.4280375875533 0.279693163751236
70.4589410144836 0.202301488452432
70.4898444414139 0.0892000617177047
70.5207478683442 -0.0551468307386598
70.5516512952745 0.0237250967976248
70.5825547222048 0.0356372728979864
70.6134581491351 -0.0908388738661463
70.6443615760654 0.104118085076656
70.6752650029957 0.00890100686924944
70.706168429926 0.221724177225921
70.7370718568563 0.00151616757523998
70.7679752837867 -0.107080164939934
70.798878710717 0.056649465394683
70.8297821376473 -0.0296163699923366
70.8606855645776 0.0984080431847207
70.8915889915079 0.275544133497284
70.9224924184382 0.0642919009453538
70.9533958453685 -0.0978486544710711
70.9842992722988 0.0837653243908676
71.0152026992291 -0.033723305325974
71.0461061261594 0.134506884949833
71.0770095530897 -0.197258390495996
71.10791298002 0.23883801119368
71.1388164069504 0.0276175185902909
71.1697198338807 -0.0362770111633073
71.200623260811 -0.189452720924256
71.2315266877413 0.0591618178788722
71.2624301146716 0.030995176674649
71.2933335416019 -0.0105597873940675
71.3242369685322 0.104139782815579
71.3551403954625 -0.281156112696413
71.3860438223928 0.177302526069959
71.4169472493231 0.0955871276861231
71.4478506762534 -0.075409450705064
71.4787541031837 -0.0946157805321741
71.5096575301141 -0.0111390046523501
71.5405609570444 0.112520876934409
71.5714643839747 0.0888638642281019
71.602367810905 -0.149074328485556
71.6332712378353 0.0594205845077203
71.6641746647656 0.0313128889222165
71.6950780916959 0.163924013329362
71.7259815186262 -0.00256747084227227
71.7568849455565 -0.052982992164115
71.7877883724868 0.124284592220977
71.8186917994171 0.212270996598717
71.8495952263474 0.0502619352548206
71.8804986532778 0.0445074081892867
71.9114020802081 0.087864558259259
71.9423055071384 -0.00716661453526246
71.9732089340687 -0.0664789673371358
72.004112360999 -0.00525107157493121
72.0350157879293 0.114017072751351
72.0659192148596 0.0770397513559948
72.0968226417899 0.0936383928104312
72.1277260687202 0.342384425686089
72.1586294956505 0.167027849982964
72.1895329225808 0.18364009427249
72.2204363495111 0.0484711585546642
72.2513397764415 -0.0866932428847984
72.2822432033718 -0.0432816814744701
72.3131466303021 -0.0221870143572063
72.3440500572324 0.0926621870384201
72.3749534841627 0.0780516369981235
72.405856911093 -0.0124472359066674
72.4367603380233 0.138129854038334
72.4676637649536 -0.0103956645954444
72.4985671918839 0.12233335104914
72.5294706188142 0.165781186686373
72.5603740457445 -0.0943378719694592
72.5912774726748 0.1366190322245
72.6221808996052 0.260437613553965
72.6530843265355 0.143189300590365
72.6839877534658 -0.23744733523773
72.7148911803961 0.011384848926824
72.7457946073264 -0.0656712897731153
72.7766980342567 0.142991391519594
72.807601461187 0.19094432137638
72.8385048881173 -0.0289553573456143
72.8694083150476 -0.0568862160749588
72.9003117419779 -0.0535625405259408
72.9312151689082 0.164051383587155
72.9621185958385 0.100419841978613
72.9930220227689 0.188578548934149
73.0239254496992 0.0624560758823338
73.0548288766295 0.338123851394596
73.0857323035598 0.0155818754709349
73.1166357304901 0.228758719539923
73.1475391574204 0.0669400978872736
73.1784425843507 0.123876010512988
73.209346011281 0.00224502884563638
73.2402494382113 -0.0925957042576377
73.2711528651416 6.80969174511326E-05
73.3020562920719 -0.0590492819148105
73.3329597190022 0.0916593021027183
73.3638631459326 -0.235306151029961
73.3947665728629 -0.0756599270271336
73.4256699997932 0.159883688396913
73.4565734267235 0.185610409527894
73.4874768536538 0.180091664937239
73.5183802805841 0.138863168910661
73.5492837075144 0.383353492876731
73.5801871344447 0.136776922549737
73.611090561375 -0.0874736849274669
73.6419939883053 0.103458813302264
73.6728974152356 -0.10292558276107
73.7038008421659 0.00765884116824411
73.7347042690963 0.247712085090208
73.7656076960266 0.228841291861962
73.7965111229569 0.0715821757692225
73.8274145498872 0.204506165383417
73.8583179768175 0.00707754641883307
73.8892214037478 0.0998320331611824
73.9201248306781 0.0452696256104668
73.9510282576084 -0.00482396194760071
73.9819316845387 0.19062269905841
74.012835111469 0.189645322914212
74.0437385383993 0.0636724810483762
74.0746419653296 0.259132744889476
74.10554539226 -0.0498667427053476
74.1364488191903 0.0161383039781922
74.1673522461206 0.104469313511523
74.1982556730509 0.143697714466076
74.2291590999812 0.174002078270418
74.2600625269115 0.181989547781696
74.2909659538418 -0.122518448428663
74.3218693807721 -0.0922004817892312
74.3527728077024 0.0586577334142784
74.3836762346327 0.0845204828961506
74.414579661563 0.150566338084958
74.4454830884933 0.2255452989807
74.4763865154237 0.00142165129766125
74.507289942354 0.107659680750129
74.5381933692843 0.0621165301952451
74.5690967962146 -0.148600657509847
74.6000002231449 0.0112224033491386
74.6309036500752 -0.159307144370656
74.6618070770055 0.143382127902198
74.6927105039358 -0.129816922689441
74.7236139308661 -0.13069001043129
74.7545173577964 0.015452753520083
74.7854207847267 -0.00804280539303859
74.816324211657 -0.00921240145636792
74.8472276385874 -0.0907346060984771
74.8781310655177 0.0598905806806327
74.909034492448 0.076591730309536
74.9399379193783 0.0441902713596578
74.9708413463086 0.0117933466881439
75.0017447732389 -0.13220618656215
