;========================================================================
;Dump of DataSpace 'C:\Users\engineer\Documents\data\user data\amt342\ColinBundschu(crb273)\04-08-2025\Experiment\X-Ray001 400um - FG  ON\ZnFeCoMnO4\Co2p Scan.VGD'
; on 8/4/2025 at 18:47:32
;========================================================================


;[Note that this file can be reloaded only if certain syntax rules are NOT broken]

$FORMAT=4


;Summary Properties present:
$PROPERTIES=SUM
DS_EXT_SUPROPID_TITLE       : VT_BSTR = 'Co2p Scan'
DS_EXT_SUPROPID_SUBJECT     : VT_BSTR = '04-08-2025'
DS_EXT_SUPROPID_AUTHOR      : VT_BSTR = 'engineer'
DS_EXT_SUPROPID_COMMENTS    : VT_BSTR = ''
DS_EXT_SUPROPID_CREATED     : VT_DATE = 8/4/2025   21:24:43
DS_EXT_SUPROPID_SAVED       : VT_DATE = 8/4/2025   22:04:44

;Standard Properties present:
$PROPERTIES=STD
DS_GEPROPID_TECHNIQUE                       : VT_I4   = 1
DS_GEPROPID_INSTRUMENT                      : VT_BSTR = 'Nexsa_G2'
DS_GEPROPID_SOURCE_TYPE                     : VT_I4   = 1
DS_GEPROPID_GUID                            : VT_BSTR = '{69403874-7F0D-43EE-BC64-FC8301B1E7C1}'
DS_GEPROPID_SOURCE_GUID                     : VT_BSTR = '{69403874-7F0D-43EE-BC64-FC8301B1E7C1}'
DS_GEPROPID_EXPT_RUN_GUID                   : VT_BSTR = '{315F86BB-07DF-4D75-BCC0-21DA24A6008A}'
DS_GEPROPID_VALUE_TYPE                      : VT_I4   = 11
DS_GEPROPID_VALUE_LABEL                     : VT_BSTR = 'Counts'
DS_GEPROPID_VALUE_SYMBOL                    : VT_BSTR = 'C'
DS_GEPROPID_VALUE_UNIT                      : VT_BSTR = ''
DS_DATASTORAGEID_DATA_STORAGE_METHOD        : VT_I4   = 0
DS_SOPROPID_STYPE                           : VT_I4   = 10
DS_SOPROPID_MONO                            : VT_BOOL = True
DS_SOPROPID_ENERGY                          : VT_R4   = 1486.680054
DS_SOPROPID_VOLTAGE                         : VT_R4   = 12000.000000
DS_SOPROPID_CURRENT                         : VT_R4   = 0.010000
DS_SOPROPID_WIDTH                           : VT_R4   = 400.000000
DS_SOPROPID_LENGTH                          : VT_R4   = 400.000000
DS_SOPROPID_GUN                             : VT_I2   = 11
DS_STPROPID_POS_X                           : VT_I4   = 29251600
DS_STPROPID_POS_Y                           : VT_I4   = 20190300
DS_STPROPID_POS_Z                           : VT_I4   = 33810506
DS_STPROPID_POS_TILT                        : VT_I4   = 0
DS_STPROPID_POS_AZIM                        : VT_I4   = 0
DS_ACPROPID_START_TIME                      : VT_DATE = 8/4/2025   21:58:18
DS_ACPROPID_END_TIME                        : VT_DATE = 8/4/2025   22:04:44
DS_ACPROPID_ACQ_TIME                        : VT_R4   = 0.050000
DS_ACPROPID_PERIODS                         : VT_I4   = 15
DS_ACPROPID_MODE                            : VT_I2   = 2
DS_ACPROPID_DIRECTION                       : VT_I2   = 1
DS_ACPROPID_SIG_COMP                        : VT_BOOL = True
DS_ACPROPID_EV_SCALE                        : VT_I2   = 1
DS_SOURCE_FLOODGUNPROPID_CURRENT            : VT_R4   = 150.000000
DS_SOURCE_FLOODGUNPROPID_ENERGY             : VT_R4   = 0.200000
DS_SOURCE_FLOODGUNPROPID_DESCRIPTION        : VT_BSTR = 'Default FG03 mode'
DS_ANPROPID_MODE                            : VT_I2   = 1
DS_ANPROPID_PASS                            : VT_R4   = 50.000000
DS_ANPROPID_WORK_FTN                        : VT_R4   = 4.200000
DS_ANPROPID_LENS_MODE_NAME                  : VT_BSTR = 'Standard'
DS_ANPROPID_TXFN_COEFFS                     : VT_I4   = 4
DS_ANPROPID_TXFN_REMOVED                    : VT_BOOL = True
; Property list for DS_ANPROPID_TXFN_COEFF (expecting 4) follows:
DS_ANPROPID_TXFN_COEFF[0]                        : VT_R4   = 4.730430
DS_ANPROPID_TXFN_COEFF[1]                        : VT_R4   = 0.641629
DS_ANPROPID_TXFN_COEFF[2]                        : VT_R4   = -0.583938
DS_ANPROPID_TXFN_COEFF[3]                        : VT_R4   = 0.061485

;Extended Properties present:
$PROPERTIES=EXT
;   NONE found

;========================================================================

;DataSpace has 1 data axes as follows:
;   #=      start,     end,       numSpaceAxes
$DATAAXES=1,#empty#
    0=        0,      410,          1

;========================================================================

;DataSpace has 1 space axes as follows:
;   #=       start,         width,       numPoints,  axisType,   linear,  symbol,     unit,      label
$SPACEAXES=1
    0=     674.680000,       0.100000,      411,  ENERGY,   LINEAR,  'E',   'eV',    'Energy'

;========================================================================

;Values on axis 0
$DATA=*
LIST@   0=    49608.879233,    49323.256795,    49408.262385,    49680.469796
LIST@   4=    49528.336807,    48956.157965,    49124.343942,    49293.059540
LIST@   8=    49247.177657,    49570.349857,    49646.670847,    49561.289270
LIST@  12=    49463.451069,    49302.945316,    49697.559159,    49242.608920
LIST@  16=    49250.337288,    49050.676119,    49051.961116,    49408.091821
LIST@  20=    49736.762371,    49522.259698,    49593.158748,    49605.240728
LIST@  24=    49412.988157,    49338.976958,    49287.129099,    49596.780984
LIST@  28=    49453.493866,    49488.542752,    49440.280253,    49187.170975
LIST@  32=    49249.704541,    49335.909388,    49317.784689,    49218.240849
LIST@  36=    49621.231392,    49396.109165,    49198.661169,    49657.049158
LIST@  40=    49417.984104,    49681.703401,    49782.254673,    49770.854293
LIST@  44=    49580.028394,    49660.419938,    49661.073185,    49691.245194
LIST@  48=    49784.769093,    49801.565676,    50053.933134,    49778.860313
LIST@  52=    49870.562913,    50110.174973,    49997.171118,    50068.556656
LIST@  56=    50149.760095,    50175.268015,    50456.274963,    50039.630137
LIST@  60=    50039.181570,    50568.816221,    50147.079399,    50409.637662
LIST@  64=    50418.170732,    50473.389721,    50438.722018,    50366.473649
LIST@  68=    50759.637844,    50771.656452,    50786.207860,    51092.414199
LIST@  72=    50915.462926,    50666.865885,    50826.334241,    50950.498102
LIST@  76=    51205.600728,    51325.112552,    51575.540342,    51018.358469
LIST@  80=    51481.152522,    51288.041147,    51178.883291,    51188.002894
LIST@  84=    51555.099555,    51465.253625,    51499.226012,    51994.390611
LIST@  88=    51745.071980,    51587.106770,    51763.500085,    52045.213902
LIST@  92=    52072.025748,    52150.562262,    52043.299823,    52196.879106
LIST@  96=    52001.016030,    51863.830556,    51970.956329,    51905.122542
LIST@ 100=    52225.013497,    51635.178537,    51986.479799,    52074.161809
LIST@ 104=    52039.609633,    51456.821793,    51317.250145,    51252.066081
LIST@ 108=    51825.288723,    51166.881487,    51322.579608,    51201.532401
LIST@ 112=    51075.534685,    51092.341958,    50596.919091,    51030.064003
LIST@ 116=    50695.659721,    50407.783434,    50489.901367,    50578.973205
LIST@ 120=    50573.442865,    50333.685038,    50302.513538,    50243.197524
LIST@ 124=    50701.668229,    50156.131248,    50638.168290,    50252.497317
LIST@ 128=    50386.534027,    50486.140243,    50579.668113,    50516.879907
LIST@ 132=    50617.190218,    50857.056294,    50759.299124,    51019.162186
LIST@ 136=    50806.081481,    51395.813901,    51333.199829,    51277.480702
LIST@ 140=    51268.261326,    51378.034394,    51665.808822,    52017.613695
LIST@ 144=    52343.721711,    52317.585541,    52617.154263,    52715.816888
LIST@ 148=    52656.720417,    53256.934364,    53334.358815,    53702.621330
LIST@ 152=    54186.195035,    54194.348868,    54192.388172,    54090.883301
LIST@ 156=    54011.208705,    54882.809517,    54953.273006,    55078.477850
LIST@ 160=    55208.943645,    55304.398508,    55061.466195,    55124.759037
LIST@ 164=    55097.933914,    55341.284660,    55216.133705,    55104.762226
LIST@ 168=    54998.671904,    54757.855804,    54260.000559,    54044.212152
LIST@ 172=    53931.579787,    53626.183949,    53152.795685,    52462.953320
LIST@ 176=    52468.229439,    51789.426110,    51025.043107,    50776.217733
LIST@ 180=    49836.264552,    49361.410657,    49268.427002,    48610.271670
LIST@ 184=    48457.227173,    48105.737042,    48164.775564,    47930.015083
LIST@ 188=    47799.764083,    47372.155634,    47092.502956,    47324.090333
LIST@ 192=    47201.441982,    47267.124363,    47050.652494,    47328.662306
LIST@ 196=    47484.087469,    47163.420739,    47020.810813,    47087.548184
LIST@ 200=    47375.746506,    47154.004903,    47091.863296,    47222.590566
LIST@ 204=    47350.148356,    47453.530067,    47545.766428,    47538.061416
LIST@ 208=    47684.531146,    47740.278503,    47663.584006,    47712.172837
LIST@ 212=    48018.481351,    48040.041962,    48081.742742,    47964.606698
LIST@ 216=    48298.524307,    48437.323976,    48446.512219,    48369.306178
LIST@ 220=    48386.813557,    48309.537091,    48746.674920,    48564.754920
LIST@ 224=    48522.961636,    48523.030714,    48713.693198,    48787.605214
LIST@ 228=    49290.577227,    49136.187853,    48934.464308,    48928.198639
LIST@ 232=    49437.499027,    49171.669944,    49011.115498,    49579.582408
LIST@ 236=    49234.571816,    49361.000161,    49741.602043,    49280.916704
LIST@ 240=    49413.922152,    49681.716954,    49609.794078,    49961.697538
LIST@ 244=    49841.579321,    49844.568797,    49624.827071,    50147.965450
LIST@ 248=    50183.539366,    49975.421782,    49904.040769,    50180.990896
LIST@ 252=    50264.720931,    50462.959737,    50354.507044,    50675.373078
LIST@ 256=    50665.581564,    50534.635094,    50480.894896,    50886.137988
LIST@ 260=    50943.298720,    50773.730077,    51231.879270,    50947.710984
LIST@ 264=    50623.889891,    50783.044948,    50646.978418,    50736.058191
LIST@ 268=    50669.289636,    50557.684396,    50568.690570,    50866.124534
LIST@ 272=    50324.783544,    50120.162877,    50600.223211,    50639.022962
LIST@ 276=    50586.852767,    50630.392839,    50323.434227,    50618.046120
LIST@ 280=    50879.325300,    50801.922754,    50824.505494,    50833.654346
LIST@ 284=    50817.012910,    51194.000173,    51413.881798,    51854.966703
LIST@ 288=    51684.993750,    51651.433753,    51758.853852,    51942.181715
LIST@ 292=    52403.685628,    52530.118630,    52667.982065,    53249.792897
LIST@ 296=    53254.574408,    53733.433435,    53803.479795,    54101.889667
LIST@ 300=    54768.870798,    55294.058708,    55034.429012,    55511.381202
LIST@ 304=    56183.429750,    56697.146715,    57143.217273,    57581.257031
LIST@ 308=    58338.901886,    59339.599968,    59634.054362,    60040.661689
LIST@ 312=    60149.582148,    61282.228295,    61520.211505,    61954.637683
LIST@ 316=    62390.732035,    62911.779175,    63272.966798,    63620.261529
LIST@ 320=    63206.379298,    62934.955619,    62564.461205,    61717.447567
LIST@ 324=    61173.425507,    60363.704024,    59204.921350,    58017.975369
LIST@ 328=    56567.901180,    55336.189833,    53944.290937,    53116.079093
LIST@ 332=    51815.276991,    50679.789648,    49665.284520,    48756.077377
LIST@ 336=    47967.809468,    47526.262900,    46357.487383,    45729.396132
LIST@ 340=    45242.856107,    44881.396984,    44851.007858,    44183.269166
LIST@ 344=    43855.123465,    43748.730315,    43926.658428,    43515.729090
LIST@ 348=    43247.266703,    43377.199018,    43154.606494,    43144.758697
LIST@ 352=    43051.952263,    42958.608347,    42975.552544,    43011.701525
LIST@ 356=    43029.728926,    42863.514409,    42930.146990,    42578.365712
LIST@ 360=    42929.693133,    42985.752939,    42685.558380,    42741.626855
LIST@ 364=    42499.017489,    42773.328203,    42499.478166,    42753.622518
LIST@ 368=    42813.533823,    42599.572950,    42579.138454,    42605.832893
LIST@ 372=    42676.417645,    42579.148809,    42613.483216,    42487.430986
LIST@ 376=    43020.088168,    42533.849676,    42708.835537,    42544.661913
LIST@ 380=    42442.701857,    42403.680874,    42655.567784,    42734.809688
LIST@ 384=    42587.609104,    42556.493014,    42827.560312,    42654.567746
LIST@ 388=    42346.697801,    42505.284169,    42363.109281,    42671.782004
LIST@ 392=    42392.917955,    42611.343972,    42453.201433,    42578.379493
LIST@ 396=    42454.020301,    42291.006899,    42181.523533,    42176.432626
LIST@ 400=    42666.739367,    42399.343513,    42628.308284,    42374.350646
LIST@ 404=    42245.352853,    41972.844272,    42067.257984,    41909.743181
LIST@ 408=    42263.146254,    41768.746232,    41885.367711
