;========================================================================
;Dump of DataSpace 'C:\Users\engineer\Documents\data\user data\amt342\ColinBundschu(crb273)\04-08-2025\Experiment\X-Ray001 400um - FG  ON\ZnFeCoMnO4\Fe2p Scan.VGD'
; on 8/4/2025 at 18:47:32
;========================================================================


;[Note that this file can be reloaded only if certain syntax rules are NOT broken]

$FORMAT=4


;Summary Properties present:
$PROPERTIES=SUM
DS_EXT_SUPROPID_TITLE       : VT_BSTR = 'Fe2p Scan'
DS_EXT_SUPROPID_SUBJECT     : VT_BSTR = '04-08-2025'
DS_EXT_SUPROPID_AUTHOR      : VT_BSTR = 'engineer'
DS_EXT_SUPROPID_COMMENTS    : VT_BSTR = ''
DS_EXT_SUPROPID_CREATED     : VT_DATE = 8/4/2025   21:24:43
DS_EXT_SUPROPID_SAVED       : VT_DATE = 8/4/2025   21:58:18

;Standard Properties present:
$PROPERTIES=STD
DS_GEPROPID_TECHNIQUE                       : VT_I4   = 1
DS_GEPROPID_INSTRUMENT                      : VT_BSTR = 'Nexsa_G2'
DS_GEPROPID_SOURCE_TYPE                     : VT_I4   = 1
DS_GEPROPID_GUID                            : VT_BSTR = '{9757DAAC-1C8A-4E4B-89AD-C86A0E386345}'
DS_GEPROPID_SOURCE_GUID                     : VT_BSTR = '{9757DAAC-1C8A-4E4B-89AD-C86A0E386345}'
DS_GEPROPID_EXPT_RUN_GUID                   : VT_BSTR = '{315F86BB-07DF-4D75-BCC0-21DA24A6008A}'
DS_GEPROPID_VALUE_TYPE                      : VT_I4   = 11
DS_GEPROPID_VALUE_LABEL                     : VT_BSTR = 'Counts'
DS_GEPROPID_VALUE_SYMBOL                    : VT_BSTR = 'C'
DS_GEPROPID_VALUE_UNIT                      : VT_BSTR = ''
DS_DATASTORAGEID_DATA_STORAGE_METHOD        : VT_I4   = 0
DS_SOPROPID_STYPE                           : VT_I4   = 10
DS_SOPROPID_MONO                            : VT_BOOL = True
DS_SOPROPID_ENERGY                          : VT_R4   = 1486.680054
DS_SOPROPID_VOLTAGE                         : VT_R4   = 12000.000000
DS_SOPROPID_CURRENT                         : VT_R4   = 0.010000
DS_SOPROPID_WIDTH                           : VT_R4   = 400.000000
DS_SOPROPID_LENGTH                          : VT_R4   = 400.000000
DS_SOPROPID_GUN                             : VT_I2   = 11
DS_STPROPID_POS_X                           : VT_I4   = 29251600
DS_STPROPID_POS_Y                           : VT_I4   = 20190300
DS_STPROPID_POS_Z                           : VT_I4   = 33810506
DS_STPROPID_POS_TILT                        : VT_I4   = 0
DS_STPROPID_POS_AZIM                        : VT_I4   = 0
DS_ACPROPID_START_TIME                      : VT_DATE = 8/4/2025   21:49:52
DS_ACPROPID_END_TIME                        : VT_DATE = 8/4/2025   21:58:18
DS_ACPROPID_ACQ_TIME                        : VT_R4   = 0.050000
DS_ACPROPID_PERIODS                         : VT_I4   = 20
DS_ACPROPID_MODE                            : VT_I2   = 2
DS_ACPROPID_DIRECTION                       : VT_I2   = 1
DS_ACPROPID_SIG_COMP                        : VT_BOOL = True
DS_ACPROPID_EV_SCALE                        : VT_I2   = 1
DS_SOURCE_FLOODGUNPROPID_CURRENT            : VT_R4   = 150.000000
DS_SOURCE_FLOODGUNPROPID_ENERGY             : VT_R4   = 0.200000
DS_SOURCE_FLOODGUNPROPID_DESCRIPTION        : VT_BSTR = 'Default FG03 mode'
DS_ANPROPID_MODE                            : VT_I2   = 1
DS_ANPROPID_PASS                            : VT_R4   = 50.000000
DS_ANPROPID_WORK_FTN                        : VT_R4   = 4.200000
DS_ANPROPID_LENS_MODE_NAME                  : VT_BSTR = 'Standard'
DS_ANPROPID_TXFN_COEFFS                     : VT_I4   = 4
DS_ANPROPID_TXFN_REMOVED                    : VT_BOOL = True
; Property list for DS_ANPROPID_TXFN_COEFF (expecting 4) follows:
DS_ANPROPID_TXFN_COEFF[0]                        : VT_R4   = 4.730430
DS_ANPROPID_TXFN_COEFF[1]                        : VT_R4   = 0.641629
DS_ANPROPID_TXFN_COEFF[2]                        : VT_R4   = -0.583938
DS_ANPROPID_TXFN_COEFF[3]                        : VT_R4   = 0.061485

;Extended Properties present:
$PROPERTIES=EXT
;   NONE found

;========================================================================

;DataSpace has 1 data axes as follows:
;   #=      start,     end,       numSpaceAxes
$DATAAXES=1,#empty#
    0=        0,      400,          1

;========================================================================

;DataSpace has 1 space axes as follows:
;   #=       start,         width,       numPoints,  axisType,   linear,  symbol,     unit,      label
$SPACEAXES=1
    0=     746.680000,       0.100000,      401,  ENERGY,   LINEAR,  'E',   'eV',    'Energy'

;========================================================================

;Values on axis 0
$DATA=*
LIST@   0=    48699.920976,    49039.116366,    49115.842216,    49261.149628
LIST@   4=    49180.390998,    49033.990690,    48782.821469,    49275.529144
LIST@   8=    48912.602011,    49070.394798,    49047.708497,    49021.352318
LIST@  12=    48838.355378,    49156.274817,    49096.502477,    49045.269834
LIST@  16=    49015.439065,    48813.367686,    49143.390841,    49040.074266
LIST@  20=    49340.478439,    48957.977159,    48896.827246,    49016.971785
LIST@  24=    48974.527991,    49064.613724,    49129.522005,    49239.827228
LIST@  28=    48784.171997,    48962.455836,    48966.643506,    49120.235564
LIST@  32=    49340.366066,    49150.272115,    49304.475539,    49263.778101
LIST@  36=    49408.818679,    49166.317652,    49293.607143,    49264.893515
LIST@  40=    49192.544569,    49031.355225,    48837.403529,    49432.806401
LIST@  44=    49262.715805,    49111.733405,    49297.256869,    48878.798058
LIST@  48=    49166.819204,    48843.026779,    49530.218427,    49301.158348
LIST@  52=    49192.416020,    49503.158324,    49376.876730,    49059.306846
LIST@  56=    49096.761150,    49291.758840,    48970.294487,    49400.335012
LIST@  60=    49469.594340,    49038.875867,    49378.891057,    49426.252453
LIST@  64=    49486.097160,    49327.899149,    49570.803475,    49393.256308
LIST@  68=    49483.723228,    49545.189508,    49273.096972,    49592.086540
LIST@  72=    49356.259724,    49186.470755,    49127.507730,    49379.743442
LIST@  76=    49378.697031,    49472.137336,    49377.020415,    49098.120701
LIST@  80=    49350.409468,    49054.644024,    49503.401743,    49277.729289
LIST@  84=    49427.561999,    49272.673412,    49106.236026,    49351.663981
LIST@  88=    49699.361467,    49376.933327,    49402.498837,    49124.206561
LIST@  92=    49186.458585,    49371.979666,    49304.039250,    49315.546759
LIST@  96=    49084.517473,    49126.929722,    49460.016677,    49555.831106
LIST@ 100=    49115.338086,    48686.659866,    49369.803250,    49188.889091
LIST@ 104=    49030.962825,    49290.595962,    49702.949627,    49164.421006
LIST@ 108=    49154.327739,    49012.251528,    49256.711324,    49185.948047
LIST@ 112=    49151.425397,    49462.538213,    49091.106154,    49391.431522
LIST@ 116=    49053.663129,    49258.847199,    49656.458345,    49069.560229
LIST@ 120=    49137.240394,    49574.339161,    49083.937250,    49449.693369
LIST@ 124=    49411.161173,    49628.150370,    49161.643692,    49378.316462
LIST@ 128=    49795.998798,    49759.275930,    49562.389129,    49556.690483
LIST@ 132=    49365.212991,    49596.777399,    49972.922009,    49901.481024
LIST@ 136=    50147.408965,    50066.836889,    50011.508095,    49875.291651
LIST@ 140=    49959.233533,    50016.981484,    49915.385021,    50126.417685
LIST@ 144=    50064.645649,    49956.756357,    50706.242467,    50281.545378
LIST@ 148=    50624.543242,    50641.915399,    50594.495488,    50723.358329
LIST@ 152=    50758.093824,    50455.701653,    50599.597773,    50733.335785
LIST@ 156=    50665.300588,    50274.874047,    50496.709376,    50621.491446
LIST@ 160=    50856.007885,    50712.858542,    50622.289688,    50734.752740
LIST@ 164=    50576.810984,    50936.446302,    50376.212659,    50906.225856
LIST@ 168=    50695.735818,    50616.360116,    50464.501642,    50498.673570
LIST@ 172=    50481.003712,    50691.757815,    50300.151428,    50573.505779
LIST@ 176=    50591.014800,    50571.600997,    50509.238366,    50377.504856
LIST@ 180=    50162.154984,    50396.782283,    50653.835385,    50240.764202
LIST@ 184=    50192.783967,    50316.281389,    50170.536133,    50424.485631
LIST@ 188=    50796.360945,    50529.631589,    50571.496237,    50575.056845
LIST@ 192=    50447.536542,    50512.724433,    50415.134719,    50128.716039
LIST@ 196=    50691.013337,    50768.698297,    50509.834539,    50944.358587
LIST@ 200=    50904.747380,    50933.186560,    50767.460986,    51216.863757
LIST@ 204=    51243.820944,    51424.783427,    51053.637649,    51542.052002
LIST@ 208=    51309.353695,    51629.031269,    51086.492253,    51373.241628
LIST@ 212=    51499.984950,    51728.883646,    51223.265169,    51607.938409
LIST@ 216=    51639.969534,    51751.470502,    51584.184733,    51645.326855
LIST@ 220=    51684.275578,    51509.556840,    51819.175852,    51777.549944
LIST@ 224=    52064.033531,    51956.437673,    51777.632949,    51612.358177
LIST@ 228=    51877.804626,    51595.879679,    51772.001126,    51771.368642
LIST@ 232=    51644.773172,    51718.695862,    51895.368839,    51865.568781
LIST@ 236=    51950.390725,    51991.409874,    51718.346069,    51813.308496
LIST@ 240=    52061.365286,    51700.984126,    51932.849216,    52018.481238
LIST@ 244=    51836.880364,    52131.498882,    52452.754466,    52514.429159
LIST@ 248=    51749.573819,    52056.618229,    51844.494066,    52203.203405
LIST@ 252=    51909.378526,    52338.846390,    51925.031128,    52114.854873
LIST@ 256=    52490.996259,    52809.661080,    52275.912465,    52503.234362
LIST@ 260=    52573.955735,    52312.752095,    52475.920970,    52651.838603
LIST@ 264=    52438.207088,    52544.893401,    52552.193916,    52289.883012
LIST@ 268=    52531.905291,    52566.857976,    52601.536062,    52998.986418
LIST@ 272=    52753.236394,    53122.717484,    52907.235162,    52484.245611
LIST@ 276=    53033.941268,    53068.017137,    52882.156946,    52890.544399
LIST@ 280=    53106.889023,    52544.735303,    52586.584127,    52693.548512
LIST@ 284=    52682.248964,    52962.940732,    52399.222586,    52896.209815
LIST@ 288=    52778.314687,    52426.679553,    52567.150096,    52258.789401
LIST@ 292=    52595.801833,    52674.376895,    52162.149918,    52048.449632
LIST@ 296=    51983.322389,    51937.097311,    51550.582244,    51372.236264
LIST@ 300=    51321.207456,    51078.522057,    50733.230445,    50728.160123
LIST@ 304=    50018.960064,    49397.011982,    48980.414590,    49209.870801
LIST@ 308=    48965.833539,    48496.713215,    47979.708856,    47993.741622
LIST@ 312=    47445.978446,    47532.755899,    46907.898855,    46700.954362
LIST@ 316=    46679.203467,    46153.064207,    46264.598917,    46067.690898
LIST@ 320=    45583.103612,    45454.866878,    45390.887177,    45320.518122
LIST@ 324=    45435.152544,    44845.190715,    44632.462175,    45099.299808
LIST@ 328=    44590.866465,    44712.422949,    44773.447653,    44735.321537
LIST@ 332=    44976.639700,    44611.511779,    44500.217043,    44618.539452
LIST@ 336=    44826.284774,    44695.011455,    44760.102455,    44561.891437
LIST@ 340=    44778.625056,    44588.678976,    44617.705630,    44755.054778
LIST@ 344=    44680.173882,    44731.247968,    44525.041213,    44615.288379
LIST@ 348=    44593.145579,    44629.753799,    44775.595511,    44186.022976
LIST@ 352=    44400.811263,    44258.104164,    44277.462024,    44643.368365
LIST@ 356=    44453.460864,    44608.029630,    44456.134060,    44577.992187
LIST@ 360=    44620.707004,    44868.639331,    44653.407691,    44571.313581
LIST@ 364=    44721.155536,    44265.137172,    44683.267329,    44585.720100
LIST@ 368=    44634.701443,    44477.534407,    44710.244166,    44684.131903
LIST@ 372=    44792.812841,    44535.146915,    44507.598949,    45069.904238
LIST@ 376=    44664.770017,    44956.878549,    44978.850600,    44706.313011
LIST@ 380=    44734.875483,    44795.045124,    44685.035694,    44741.332434
LIST@ 384=    45094.019628,    44868.389271,    44662.572825,    44916.785910
LIST@ 388=    44634.571952,    44488.865602,    44916.636705,    44751.634516
LIST@ 392=    44770.872287,    44804.198197,    44829.880105,    45124.677994
LIST@ 396=    44778.179957,    44731.620261,    44784.687255,    44352.722672
LIST@ 400=    44708.544694
