;========================================================================
;Dump of DataSpace 'C:\Users\engineer\Documents\data\user data\amt342\ColinBundschu(crb273)\04-08-2025\Experiment\X-Ray001 400um - FG  ON\ZnFeCoMnO4\Mn2p Scan.VGD'
; on 8/4/2025 at 18:47:32
;========================================================================


;[Note that this file can be reloaded only if certain syntax rules are NOT broken]

$FORMAT=4


;Summary Properties present:
$PROPERTIES=SUM
DS_EXT_SUPROPID_TITLE       : VT_BSTR = 'Mn2p Scan'
DS_EXT_SUPROPID_SUBJECT     : VT_BSTR = '04-08-2025'
DS_EXT_SUPROPID_AUTHOR      : VT_BSTR = 'engineer'
DS_EXT_SUPROPID_COMMENTS    : VT_BSTR = ''
DS_EXT_SUPROPID_CREATED     : VT_DATE = 8/4/2025   21:24:43
DS_EXT_SUPROPID_SAVED       : VT_DATE = 8/4/2025   21:43:56

;Standard Properties present:
$PROPERTIES=STD
DS_GEPROPID_TECHNIQUE                       : VT_I4   = 1
DS_GEPROPID_INSTRUMENT                      : VT_BSTR = 'Nexsa_G2'
DS_GEPROPID_SOURCE_TYPE                     : VT_I4   = 1
DS_GEPROPID_GUID                            : VT_BSTR = '{FDB4F216-F365-432D-881B-A7784415BE68}'
DS_GEPROPID_SOURCE_GUID                     : VT_BSTR = '{FDB4F216-F365-432D-881B-A7784415BE68}'
DS_GEPROPID_EXPT_RUN_GUID                   : VT_BSTR = '{315F86BB-07DF-4D75-BCC0-21DA24A6008A}'
DS_GEPROPID_VALUE_TYPE                      : VT_I4   = 11
DS_GEPROPID_VALUE_LABEL                     : VT_BSTR = 'Counts'
DS_GEPROPID_VALUE_SYMBOL                    : VT_BSTR = 'C'
DS_GEPROPID_VALUE_UNIT                      : VT_BSTR = ''
DS_DATASTORAGEID_DATA_STORAGE_METHOD        : VT_I4   = 0
DS_SOPROPID_STYPE                           : VT_I4   = 10
DS_SOPROPID_MONO                            : VT_BOOL = True
DS_SOPROPID_ENERGY                          : VT_R4   = 1486.680054
DS_SOPROPID_VOLTAGE                         : VT_R4   = 12000.000000
DS_SOPROPID_CURRENT                         : VT_R4   = 0.010000
DS_SOPROPID_WIDTH                           : VT_R4   = 400.000000
DS_SOPROPID_LENGTH                          : VT_R4   = 400.000000
DS_SOPROPID_GUN                             : VT_I2   = 11
DS_STPROPID_POS_X                           : VT_I4   = 29251600
DS_STPROPID_POS_Y                           : VT_I4   = 20190300
DS_STPROPID_POS_Z                           : VT_I4   = 33810506
DS_STPROPID_POS_TILT                        : VT_I4   = 0
DS_STPROPID_POS_AZIM                        : VT_I4   = 0
DS_ACPROPID_START_TIME                      : VT_DATE = 8/4/2025   21:39:14
DS_ACPROPID_END_TIME                        : VT_DATE = 8/4/2025   21:43:56
DS_ACPROPID_ACQ_TIME                        : VT_R4   = 0.050000
DS_ACPROPID_PERIODS                         : VT_I4   = 15
DS_ACPROPID_MODE                            : VT_I2   = 2
DS_ACPROPID_DIRECTION                       : VT_I2   = 1
DS_ACPROPID_SIG_COMP                        : VT_BOOL = True
DS_ACPROPID_EV_SCALE                        : VT_I2   = 1
DS_SOURCE_FLOODGUNPROPID_CURRENT            : VT_R4   = 150.000000
DS_SOURCE_FLOODGUNPROPID_ENERGY             : VT_R4   = 0.200000
DS_SOURCE_FLOODGUNPROPID_DESCRIPTION        : VT_BSTR = 'Default FG03 mode'
DS_ANPROPID_MODE                            : VT_I2   = 1
DS_ANPROPID_PASS                            : VT_R4   = 50.000000
DS_ANPROPID_WORK_FTN                        : VT_R4   = 4.200000
DS_ANPROPID_LENS_MODE_NAME                  : VT_BSTR = 'Standard'
DS_ANPROPID_TXFN_COEFFS                     : VT_I4   = 4
DS_ANPROPID_TXFN_REMOVED                    : VT_BOOL = True
; Property list for DS_ANPROPID_TXFN_COEFF (expecting 4) follows:
DS_ANPROPID_TXFN_COEFF[0]                        : VT_R4   = 4.730430
DS_ANPROPID_TXFN_COEFF[1]                        : VT_R4   = 0.641629
DS_ANPROPID_TXFN_COEFF[2]                        : VT_R4   = -0.583938
DS_ANPROPID_TXFN_COEFF[3]                        : VT_R4   = 0.061485

;Extended Properties present:
$PROPERTIES=EXT
;   NONE found

;========================================================================

;DataSpace has 1 data axes as follows:
;   #=      start,     end,       numSpaceAxes
$DATAAXES=1,#empty#
    0=        0,      280,          1

;========================================================================

;DataSpace has 1 space axes as follows:
;   #=       start,         width,       numPoints,  axisType,   linear,  symbol,     unit,      label
$SPACEAXES=1
    0=     826.680000,       0.100000,      281,  ENERGY,   LINEAR,  'E',   'eV',    'Energy'

;========================================================================

;Values on axis 0
$DATA=*
LIST@   0=    31966.662121,    31650.935462,    31773.016632,    31541.016917
LIST@   4=    31462.826272,    31831.122006,    31696.077477,    31405.415597
LIST@   8=    31529.209875,    31327.710776,    31618.961187,    31507.005932
LIST@  12=    31577.449674,    31428.733391,    31367.001469,    31629.682947
LIST@  16=    31534.785731,    31406.499596,    31302.376428,    31463.261569
LIST@  20=    31483.174539,    31690.305159,    31694.774895,    31691.660108
LIST@  24=    31607.125599,    31602.673515,    31809.856801,    31832.097105
LIST@  28=    31938.895571,    32103.993498,    32019.104099,    32196.805790
LIST@  32=    32335.817682,    32103.026301,    32194.065643,    32364.664033
LIST@  36=    32509.936829,    32510.412166,    32739.872350,    33021.116420
LIST@  40=    33168.489572,    33190.601867,    33004.610536,    33785.455375
LIST@  44=    34054.440309,    33975.003218,    34134.631901,    34483.952179
LIST@  48=    34494.011484,    34927.777926,    35018.308817,    35003.046848
LIST@  52=    35605.129936,    36113.147304,    36204.481341,    36544.255918
LIST@  56=    36765.608964,    37130.674178,    37197.208144,    37548.590748
LIST@  60=    37693.051825,    38148.287435,    38368.452897,    38299.849793
LIST@  64=    38536.784580,    38425.517005,    38529.410414,    38664.816709
LIST@  68=    38281.693307,    38570.679520,    38472.988966,    38456.089612
LIST@  72=    37862.861550,    37867.546872,    37670.625856,    37441.846333
LIST@  76=    36887.891331,    36786.955743,    36316.019117,    35843.651310
LIST@  80=    35479.994108,    35079.849306,    34632.218080,    34046.125951
LIST@  84=    33299.521461,    32814.758287,    32653.680671,    31950.721944
LIST@  88=    31838.603208,    31346.365772,    31254.702612,    30886.343736
LIST@  92=    30601.626473,    30157.386513,    30233.212732,    29826.583978
LIST@  96=    29661.245037,    29503.332147,    29211.839465,    29080.086298
LIST@ 100=    28977.123022,    28825.839945,    28583.547461,    28383.464374
LIST@ 104=    28239.882270,    27990.241818,    28047.078492,    27760.107500
LIST@ 108=    27928.680620,    27979.190067,    27828.594602,    27945.267958
LIST@ 112=    27573.355183,    27626.531496,    27648.028723,    27599.376191
LIST@ 116=    27535.293171,    27318.621870,    27383.235152,    27453.721137
LIST@ 120=    27630.685753,    27333.258691,    27360.016323,    27281.852625
LIST@ 124=    27335.928070,    27450.594032,    27486.966806,    27399.183547
LIST@ 128=    27680.746021,    27472.802785,    27563.316353,    27793.102190
LIST@ 132=    27604.861257,    27605.930727,    27854.863284,    27462.257952
LIST@ 136=    27836.460910,    27821.615894,    27945.103036,    27952.308027
LIST@ 140=    28443.847638,    28183.886572,    28448.754278,    28593.299599
LIST@ 144=    28678.460718,    28910.564556,    28916.941924,    29078.148600
LIST@ 148=    29378.418026,    29591.954607,    29713.343803,    29994.013448
LIST@ 152=    30241.073521,    30464.187918,    30683.237858,    30802.387279
LIST@ 156=    31030.481794,    31400.896337,    31688.358099,    32162.415598
LIST@ 160=    32214.662418,    32865.550155,    33383.189232,    33457.289112
LIST@ 164=    34075.743357,    34130.858329,    35153.840383,    35447.589825
LIST@ 168=    36078.924338,    36562.032786,    37163.798168,    37670.301675
LIST@ 172=    37778.997218,    38195.131323,    39334.398757,    39712.754727
LIST@ 176=    39604.995462,    40258.624316,    40625.295938,    40895.212606
LIST@ 180=    41223.776562,    41536.088502,    41635.289708,    41708.005970
LIST@ 184=    41750.803800,    41613.321881,    41576.244101,    41308.973193
LIST@ 188=    41088.189129,    40976.789082,    40497.454190,    40095.771604
LIST@ 192=    39572.818356,    38814.201835,    38116.279694,    37327.078476
LIST@ 196=    36280.704964,    35153.743637,    34271.209665,    33176.633916
LIST@ 200=    31983.603352,    30869.280708,    29809.165852,    28926.916667
LIST@ 204=    27848.903730,    27028.822665,    26304.321020,    25790.152744
LIST@ 208=    25071.419884,    24583.819221,    24157.906537,    24089.682125
LIST@ 212=    23594.690638,    23433.256725,    23434.586271,    23163.490436
LIST@ 216=    23070.720907,    22918.424195,    22708.179923,    22694.621062
LIST@ 220=    22500.954753,    22419.195650,    22326.414075,    22646.627822
LIST@ 224=    22514.698151,    22445.648062,    22335.330926,    22634.328918
LIST@ 228=    22332.952110,    22319.503101,    22468.483960,    22344.253278
LIST@ 232=    22442.844518,    21945.719184,    22165.218484,    22117.766940
LIST@ 236=    22219.610542,    22143.659415,    22042.458079,    22266.845710
LIST@ 240=    22251.373509,    22227.904115,    22219.117445,    22210.770464
LIST@ 244=    22219.134464,    22065.962012,    22319.622506,    22173.670220
LIST@ 248=    22165.019275,    22125.516981,    22078.193946,    22082.245877
LIST@ 252=    22209.418588,    21951.589438,    22122.510009,    22090.580067
LIST@ 256=    22063.715320,    21939.304056,    22154.488232,    22040.960646
LIST@ 260=    21970.409756,    22125.240922,    22256.933687,    22077.525724
LIST@ 264=    22155.345760,    22009.512833,    21978.072091,    22206.444438
LIST@ 268=    22104.118127,    22180.593956,    22143.333845,    22070.867838
LIST@ 272=    22001.041715,    22151.602121,    22072.185756,    21873.444687
LIST@ 276=    22038.454574,    22345.580378,    22063.123157,    22088.419174
LIST@ 280=    22045.215955
