;========================================================================
;Dump of DataSpace 'C:\Users\engineer\Documents\data\user data\amt342\ColinBundschu(crb273)\04-08-2025\Experiment\X-Ray001 400um - FG  ON\ZnFeCoMnO4\XPS Survey.VGD'
; on 8/4/2025 at 18:47:32
;========================================================================


;[Note that this file can be reloaded only if certain syntax rules are NOT broken]

$FORMAT=4


;Summary Properties present:
$PROPERTIES=SUM
DS_EXT_SUPROPID_TITLE       : VT_BSTR = 'XPS Survey'
DS_EXT_SUPROPID_SUBJECT     : VT_BSTR = '04-08-2025'
DS_EXT_SUPROPID_AUTHOR      : VT_BSTR = 'engineer'
DS_EXT_SUPROPID_COMMENTS    : VT_BSTR = ''
DS_EXT_SUPROPID_CREATED     : VT_DATE = 8/4/2025   21:24:42
DS_EXT_SUPROPID_SAVED       : VT_DATE = 8/4/2025   21:36:46

;Standard Properties present:
$PROPERTIES=STD
DS_GEPROPID_TECHNIQUE                       : VT_I4   = 1
DS_GEPROPID_INSTRUMENT                      : VT_BSTR = 'Nexsa_G2'
DS_GEPROPID_SOURCE_TYPE                     : VT_I4   = 1
DS_GEPROPID_GUID                            : VT_BSTR = '{16E00F8E-A604-431C-B3E1-FADAA6EC93A0}'
DS_GEPROPID_SOURCE_GUID                     : VT_BSTR = '{16E00F8E-A604-431C-B3E1-FADAA6EC93A0}'
DS_GEPROPID_EXPT_RUN_GUID                   : VT_BSTR = '{315F86BB-07DF-4D75-BCC0-21DA24A6008A}'
DS_GEPROPID_VALUE_TYPE                      : VT_I4   = 11
DS_GEPROPID_VALUE_LABEL                     : VT_BSTR = 'Counts'
DS_GEPROPID_VALUE_SYMBOL                    : VT_BSTR = 'C'
DS_GEPROPID_VALUE_UNIT                      : VT_BSTR = ''
DS_DATASTORAGEID_DATA_STORAGE_METHOD        : VT_I4   = 0
DS_SOPROPID_STYPE                           : VT_I4   = 10
DS_SOPROPID_MONO                            : VT_BOOL = True
DS_SOPROPID_ENERGY                          : VT_R4   = 1486.680054
DS_SOPROPID_VOLTAGE                         : VT_R4   = 12000.000000
DS_SOPROPID_CURRENT                         : VT_R4   = 0.010000
DS_SOPROPID_WIDTH                           : VT_R4   = 400.000000
DS_SOPROPID_LENGTH                          : VT_R4   = 400.000000
DS_SOPROPID_GUN                             : VT_I2   = 11
DS_STPROPID_POS_X                           : VT_I4   = 29251600
DS_STPROPID_POS_Y                           : VT_I4   = 20190300
DS_STPROPID_POS_Z                           : VT_I4   = 33810506
DS_STPROPID_POS_TILT                        : VT_I4   = 0
DS_STPROPID_POS_AZIM                        : VT_I4   = 0
DS_ACPROPID_START_TIME                      : VT_DATE = 8/4/2025   21:35:02
DS_ACPROPID_END_TIME                        : VT_DATE = 8/4/2025   21:36:46
DS_ACPROPID_ACQ_TIME                        : VT_R4   = 0.010000
DS_ACPROPID_PERIODS                         : VT_I4   = 4
DS_ACPROPID_MODE                            : VT_I2   = 2
DS_ACPROPID_DIRECTION                       : VT_I2   = 1
DS_ACPROPID_SIG_COMP                        : VT_BOOL = True
DS_ACPROPID_EV_SCALE                        : VT_I2   = 1
DS_SOURCE_FLOODGUNPROPID_CURRENT            : VT_R4   = 150.000000
DS_SOURCE_FLOODGUNPROPID_ENERGY             : VT_R4   = 0.200000
DS_SOURCE_FLOODGUNPROPID_DESCRIPTION        : VT_BSTR = 'Default FG03 mode'
DS_ANPROPID_MODE                            : VT_I2   = 1
DS_ANPROPID_PASS                            : VT_R4   = 200.000000
DS_ANPROPID_WORK_FTN                        : VT_R4   = 4.200000
DS_ANPROPID_LENS_MODE_NAME                  : VT_BSTR = 'Standard'
DS_ANPROPID_TXFN_COEFFS                     : VT_I4   = 4
DS_ANPROPID_TXFN_REMOVED                    : VT_BOOL = True
; Property list for DS_ANPROPID_TXFN_COEFF (expecting 4) follows:
DS_ANPROPID_TXFN_COEFF[0]                        : VT_R4   = 4.730430
DS_ANPROPID_TXFN_COEFF[1]                        : VT_R4   = 0.641629
DS_ANPROPID_TXFN_COEFF[2]                        : VT_R4   = -0.583938
DS_ANPROPID_TXFN_COEFF[3]                        : VT_R4   = 0.061485

;Extended Properties present:
$PROPERTIES=EXT
;   NONE found

;========================================================================

;DataSpace has 1 data axes as follows:
;   #=      start,     end,       numSpaceAxes
$DATAAXES=1,#empty#
    0=        0,     1360,          1

;========================================================================

;DataSpace has 1 space axes as follows:
;   #=       start,         width,       numPoints,  axisType,   linear,  symbol,     unit,      label
$SPACEAXES=1
    0=     136.680000,       1.000000,     1361,  ENERGY,   LINEAR,  'E',   'eV',    'Energy'

;========================================================================

;Values on axis 0
$DATA=*
LIST@   0=    21717.598445,    21322.976681,    21449.712861,    21562.740747
LIST@   4=    21161.444069,    21112.649822,    20978.928613,    21123.292526
LIST@   8=    20930.486917,    21223.155652,    21267.242411,    21097.607568
LIST@  12=    20737.310761,    20663.964355,    20795.572281,    20506.806407
LIST@  16=    20039.390730,    19955.256958,    20457.101229,    20231.512541
LIST@  20=    20277.128077,    20048.651196,    19957.014039,    20199.840864
LIST@  24=    19930.932098,    20170.273475,    19896.089417,    19838.852702
LIST@  28=    19664.091487,    19918.838583,    19772.366962,    19933.683808
LIST@  32=    19821.411730,    19674.582144,    19692.361367,    19672.903911
LIST@  36=    19751.548090,    19693.901125,    19463.263365,    19736.826497
LIST@  40=    19674.620581,    19649.473540,    19798.970056,    19727.962795
LIST@  44=    19458.468916,    19643.088327,    19243.641830,    19609.982613
LIST@  48=    19565.254156,    19483.659499,    19437.653612,    19139.741574
LIST@  52=    19233.784917,    19332.486434,    19210.362872,    19335.660227
LIST@  56=    19433.085420,    19419.137809,    19296.529505,    19234.849857
LIST@  60=    18828.322321,    19328.844443,    19133.601294,    19254.828873
LIST@  64=    19290.534690,    19281.492682,    19354.044051,    19481.694794
LIST@  68=    19072.361400,    19260.802616,    19073.619407,    19099.840904
LIST@  72=    19282.136989,    19212.513328,    19333.309581,    19121.369377
LIST@  76=    19129.731746,    19398.079950,    19161.157523,    19126.115592
LIST@  80=    19247.839067,    19137.294001,    18958.829980,    19012.383983
LIST@  84=    19249.675017,    19442.032976,    19218.277385,    19334.909256
LIST@  88=    19330.732915,    19193.296678,    19628.611396,    19250.310035
LIST@  92=    19494.626368,    19214.343671,    19522.085651,    19521.068549
LIST@  96=    19395.934117,    19373.362513,    19521.050386,    19597.496540
LIST@ 100=    19617.969648,    19551.357243,    19900.065950,    19885.562467
LIST@ 104=    19745.015811,    19907.236852,    19718.374091,    19846.915840
LIST@ 108=    20010.128728,    19751.305753,    19857.069881,    19848.214532
LIST@ 112=    19971.241787,    19742.828730,    19481.898497,    19687.741778
LIST@ 116=    19978.462981,    20184.851683,    19945.639485,    20119.514146
LIST@ 120=    20543.494812,    20428.155002,    20481.293117,    20630.860788
LIST@ 124=    20403.868913,    20426.699628,    20442.453293,    20422.715878
LIST@ 128=    20270.247677,    19928.806122,    19682.831551,    19716.144498
LIST@ 132=    19539.402188,    19238.049113,    18944.073371,    19043.793892
LIST@ 136=    18775.655189,    18780.382458,    18792.798960,    18380.564761
LIST@ 140=    18604.719372,    18419.184660,    18810.190111,    18891.586552
LIST@ 144=    18486.488032,    18626.250371,    18806.900748,    18458.997023
LIST@ 148=    18438.799613,    18483.504433,    18847.968406,    18908.901840
LIST@ 152=    18766.606408,    19246.073420,    18921.841523,    19223.959740
LIST@ 156=    19054.072384,    18757.620795,    18945.432681,    18940.054477
LIST@ 160=    18789.156075,    18719.157906,    18916.411114,    18814.173694
LIST@ 164=    18993.679767,    18860.496421,    18893.022314,    18944.982950
LIST@ 168=    18852.978579,    18697.278964,    18666.858805,    18895.584003
LIST@ 172=    19144.842910,    19038.977494,    19009.784074,    18849.217987
LIST@ 176=    19250.615507,    19002.188034,    19032.759097,    19271.228398
LIST@ 180=    19156.056380,    18943.592020,    19180.964014,    19277.936934
LIST@ 184=    19454.238997,    19258.683871,    19137.423937,    19201.032866
LIST@ 188=    19524.836230,    19252.608510,    19425.331254,    19361.053922
LIST@ 192=    19282.501901,    19253.675905,    19206.728518,    19451.278122
LIST@ 196=    19355.963577,    19624.644333,    19656.815867,    19782.967157
LIST@ 200=    19519.271962,    19523.891059,    19347.965490,    19799.728975
LIST@ 204=    19779.136938,    20017.665555,    19766.733278,    19707.962549
LIST@ 208=    19667.456481,    19792.314238,    19893.668181,    19922.702700
LIST@ 212=    19982.007329,    19770.405934,    19985.061320,    19717.776133
LIST@ 216=    20070.253295,    19798.378428,    20145.621448,    19918.622115
LIST@ 220=    20017.967339,    20122.497503,    20480.520126,    20092.694825
LIST@ 224=    20305.564011,    20168.735070,    20137.288721,    20438.759261
LIST@ 228=    20238.446642,    20318.806734,    20381.351053,    20429.333367
LIST@ 232=    20469.987499,    20730.665044,    20291.944725,    20550.942764
LIST@ 236=    20551.085865,    20103.084711,    20210.328848,    20478.660275
LIST@ 240=    20721.569059,    20462.984363,    20869.139481,    20567.178965
LIST@ 244=    20732.404151,    21042.777046,    20617.552832,    20709.314618
LIST@ 248=    20870.766150,    21094.423463,    20926.803468,    21021.053142
LIST@ 252=    20994.042985,    21105.800343,    20791.196860,    21091.512184
LIST@ 256=    20911.936752,    20937.121904,    20748.017574,    20831.343288
LIST@ 260=    21060.693817,    21137.561780,    21252.207709,    21322.076952
LIST@ 264=    21115.933700,    21095.655190,    21498.060595,    21354.535774
LIST@ 268=    21415.262931,    21522.242796,    21600.867308,    21643.377030
LIST@ 272=    21315.858889,    21362.644527,    21222.466186,    21399.714565
LIST@ 276=    21526.818703,    21764.618398,    21734.706836,    21600.989898
LIST@ 280=    21711.924035,    21742.649791,    21833.249893,    21897.571431
LIST@ 284=    21768.874013,    21888.467357,    21680.879864,    21707.530841
LIST@ 288=    21640.038929,    21935.709274,    21954.621051,    22036.200347
LIST@ 292=    21823.460082,    21956.137657,    21712.050442,    21823.415114
LIST@ 296=    22012.996933,    21784.393635,    21857.922180,    21999.472072
LIST@ 300=    22134.492206,    22004.075078,    22231.533061,    22317.473796
LIST@ 304=    22814.039233,    24056.767475,    24425.309748,    23486.422375
LIST@ 308=    22317.721393,    22336.582502,    21991.670809,    22239.593152
LIST@ 312=    21835.024788,    21965.708942,    21992.240963,    21707.108048
LIST@ 316=    21899.054291,    21818.510962,    21886.583963,    22011.933274
LIST@ 320=    22020.775731,    21807.734876,    21754.014249,    21809.486967
LIST@ 324=    21791.353483,    21951.484409,    22188.693112,    23320.136795
LIST@ 328=    25809.080879,    27628.875603,    24757.453899,    22412.581704
LIST@ 332=    21808.918633,    22058.013460,    21475.656739,    21608.599030
LIST@ 336=    21689.947195,    21592.407747,    21768.895434,    21824.082530
LIST@ 340=    22176.331016,    22208.995065,    22154.199638,    21766.925290
LIST@ 344=    21857.309541,    22134.393179,    21972.803639,    21815.480079
LIST@ 348=    22087.144741,    22108.555519,    22094.165863,    22308.747619
LIST@ 352=    22359.248528,    22641.902566,    22642.286703,    22843.148552
LIST@ 356=    22808.500232,    22417.806876,    22324.578081,    22019.149435
LIST@ 360=    21902.720409,    22063.905932,    22193.787197,    21987.821133
LIST@ 364=    21997.188956,    21642.780360,    21738.328473,    21748.368554
LIST@ 368=    21913.376803,    22068.837174,    22173.866700,    22216.058339
LIST@ 372=    22909.072762,    23445.834906,    24000.575684,    23752.078926
LIST@ 376=    23446.572868,    22891.465497,    22494.845784,    22108.026754
LIST@ 380=    21797.833334,    21745.509631,    21488.434831,    21229.541734
LIST@ 384=    21040.721537,    20943.393489,    20799.523967,    20682.814914
LIST@ 388=    20958.166920,    20914.253322,    20864.035498,    20760.206108
LIST@ 392=    20788.671179,    20811.921366,    20799.992631,    20801.985782
LIST@ 396=    20951.956475,    20863.179703,    20920.473217,    20860.350537
LIST@ 400=    20722.728957,    20656.792558,    21066.727234,    20789.195809
LIST@ 404=    20778.525221,    21036.666952,    20503.011672,    20351.917987
LIST@ 408=    20302.699614,    20115.435601,    20146.563730,    20080.066521
LIST@ 412=    20337.095154,    20433.985043,    20132.632348,    20354.545276
LIST@ 416=    20211.680573,    20158.806982,    20247.385449,    20459.364423
LIST@ 420=    20445.202675,    20403.793066,    20563.223257,    20274.485859
LIST@ 424=    20524.281286,    20261.313884,    20216.948516,    20248.572752
LIST@ 428=    20098.644830,    20093.295175,    20287.807399,    19989.871640
LIST@ 432=    19977.471505,    19670.820419,    20070.079670,    19976.216768
LIST@ 436=    20028.496984,    19920.608239,    20186.549291,    20165.463902
LIST@ 440=    19945.889665,    19711.487159,    20211.858516,    20359.322693
LIST@ 444=    20633.507299,    20693.829926,    20796.374190,    20426.232694
LIST@ 448=    20688.083504,    20756.611205,    20795.573865,    20563.239999
LIST@ 452=    20334.450389,    20459.292591,    20440.795383,    20011.807245
LIST@ 456=    19863.042264,    19872.412822,    19850.814349,    19697.135788
LIST@ 460=    19792.937092,    19666.634217,    19815.743088,    19714.289149
LIST@ 464=    19606.825269,    19518.854228,    19388.870949,    19592.546960
LIST@ 468=    19664.481045,    19575.881588,    19682.211804,    19708.944576
LIST@ 472=    19689.401030,    19623.074578,    19773.082267,    19699.034710
LIST@ 476=    19804.572732,    19834.664054,    19721.522719,    20161.556216
LIST@ 480=    19972.364352,    19824.693240,    19872.689883,    19717.305112
LIST@ 484=    19713.422672,    19627.698260,    19745.598067,    19940.951092
LIST@ 488=    19700.444361,    19905.621606,    19954.877309,    19985.616657
LIST@ 492=    20014.766725,    20197.229101,    20067.937142,    20181.555607
LIST@ 496=    20107.758833,    20230.367283,    20410.288758,    20257.395549
LIST@ 500=    20452.481921,    20418.769491,    20180.194110,    20141.239246
LIST@ 504=    20376.402390,    20054.428445,    20381.294741,    20016.295236
LIST@ 508=    20343.396150,    20068.216004,    20142.917255,    20134.347451
LIST@ 512=    20270.678800,    20163.782131,    19955.345361,    19985.324714
LIST@ 516=    20267.508102,    20093.721193,    19698.960755,    19418.366910
LIST@ 520=    19264.033774,    19014.814300,    19217.575964,    19190.982666
LIST@ 524=    19200.603822,    19145.393167,    19143.023833,    19076.510304
LIST@ 528=    19224.112830,    19116.994458,    18910.475611,    18811.647934
LIST@ 532=    18889.067632,    18951.367087,    18729.168591,    18691.034457
LIST@ 536=    18748.707146,    18555.315155,    18759.029477,    18869.892998
LIST@ 540=    18582.620888,    18703.762775,    18931.812948,    18919.606431
LIST@ 544=    19204.765969,    19339.174003,    19490.268957,    19345.496655
LIST@ 548=    19523.858120,    19401.936881,    19183.887868,    19309.241536
LIST@ 552=    19567.669991,    20195.347593,    20619.911329,    19721.166692
LIST@ 556=    18604.739127,    18149.427221,    17878.190348,    18250.295700
LIST@ 560=    18380.146440,    18504.557560,    18556.814751,    19054.058212
LIST@ 564=    18846.478773,    19003.354164,    19272.987746,    19687.765023
LIST@ 568=    21061.721537,    22579.540088,    22042.270975,    19137.363465
LIST@ 572=    17152.806003,    16538.254393,    16452.317389,    16245.624909
LIST@ 576=    16383.514497,    16161.942595,    16041.397426,    15831.033624
LIST@ 580=    15739.407404,    15234.034665,    15240.243440,    14839.553419
LIST@ 584=    14734.317994,    14754.122715,    14492.655080,    14228.965744
LIST@ 588=    14255.314380,    14199.209363,    14221.527813,    14146.577274
LIST@ 592=    14220.047453,    14231.543651,    14158.656340,    14213.729696
LIST@ 596=    13975.400370,    13989.563931,    13872.191339,    14288.954616
LIST@ 600=    14144.624448,    14112.423879,    14121.288911,    14057.280273
LIST@ 604=    14419.180339,    14249.904448,    14453.160622,    14339.818514
LIST@ 608=    14355.989082,    14174.048857,    14441.643926,    14331.345723
LIST@ 612=    14663.536427,    14491.535917,    14630.985682,    14474.009363
LIST@ 616=    14253.143640,    14469.930244,    14630.508195,    14640.670031
LIST@ 620=    14365.720770,    14410.262358,    14632.048141,    14651.846479
LIST@ 624=    14714.722102,    14661.683310,    14871.528253,    14740.231642
LIST@ 628=    14907.416218,    14939.447707,    14999.830686,    15128.131938
LIST@ 632=    15188.676452,    15393.244262,    15354.669732,    15465.119754
LIST@ 636=    15294.923965,    15605.106502,    15388.435292,    15377.805305
LIST@ 640=    14654.180263,    13992.672874,    13700.152768,    13283.107905
LIST@ 644=    13368.970620,    13127.430591,    13162.246616,    13351.869525
LIST@ 648=    13382.061534,    13416.183226,    13307.599601,    13146.696466
LIST@ 652=    13371.715085,    12986.966621,    12903.958261,    13073.278893
LIST@ 656=    12980.152147,    13125.505835,    12918.572942,    12863.697404
LIST@ 660=    13008.083557,    12936.400252,    12918.285612,    13167.104292
LIST@ 664=    12931.610650,    13310.116909,    13010.136565,    13096.290399
LIST@ 668=    13283.572261,    13243.484792,    13346.451274,    12996.628177
LIST@ 672=    13128.893073,    13139.275512,    13038.296629,    13202.511504
LIST@ 676=    13268.459207,    13239.076753,    13146.015636,    13155.737995
LIST@ 680=    13061.214947,    13208.143213,    12975.790509,    13177.193820
LIST@ 684=    13367.517304,    13380.778428,    13533.100250,    13475.321322
LIST@ 688=    13309.093386,    12899.807927,    12818.656502,    12839.649588
LIST@ 692=    12828.596555,    13176.312635,    13719.700564,    14482.226563
LIST@ 696=    15209.005674,    14793.653768,    13676.295715,    12491.835562
LIST@ 700=    11696.706721,    11437.327893,    11292.727205,    11655.850491
LIST@ 704=    11962.668079,    12477.217641,    13628.798455,    15229.844125
LIST@ 708=    16038.897164,    14995.066602,    12047.136112,    10067.224364
LIST@ 712=     9388.785416,     9348.300492,     9132.837058,     9145.100667
LIST@ 716=     9030.901942,     9080.862210,     9230.561426,     9048.634496
LIST@ 720=     9143.994850,     8936.122806,     8981.446883,     8979.038650
LIST@ 724=     9112.702568,     8848.486372,     9036.985650,     9132.385254
LIST@ 728=     9017.298693,     8952.104126,     8891.434552,     8979.325206
LIST@ 732=     8986.770142,     9268.327882,     9226.811891,     9165.130710
LIST@ 736=     9230.121451,     8956.852719,     9260.813972,     9100.114538
LIST@ 740=     9087.541785,     9189.124982,     9174.306375,     9165.022498
LIST@ 744=     9126.914177,     9286.001823,     9179.405013,     9345.633699
LIST@ 748=     9276.783618,     9249.572792,     9138.805544,     9130.399714
LIST@ 752=     9237.780291,     9314.301768,     9176.780850,     9404.975768
LIST@ 756=     9381.559042,     9445.786687,     9236.453012,     9253.003947
LIST@ 760=     9376.335302,     9496.225133,     9719.061951,     9711.222785
LIST@ 764=     9926.300083,    10126.586307,     9886.431209,     9652.702794
LIST@ 768=     9347.678292,     9189.950381,     9203.599511,     9053.633143
LIST@ 772=     9397.590058,     9270.487531,     9281.376131,     9252.386233
LIST@ 776=     9208.219040,     8999.073473,     8994.478885,     8761.133967
LIST@ 780=     8866.246947,     8754.307790,     8636.760302,     8557.479405
LIST@ 784=     8541.437507,     8631.238322,     8904.733868,     8953.707612
LIST@ 788=     9031.429392,     8906.719832,     8852.185848,     8720.784106
LIST@ 792=     8825.581539,     8937.536739,     8752.136845,     8809.653869
LIST@ 796=     8945.063596,     9039.142216,     8550.163777,     8593.288519
LIST@ 800=     8549.428354,     8308.669598,     8159.300537,     8140.648096
LIST@ 804=     8055.334327,     7870.467936,     7733.109718,     7369.552963
LIST@ 808=     7299.883397,     7041.071257,     7039.134434,     6858.243760
LIST@ 812=     6508.972277,     6747.054308,     6585.657733,     6754.840799
LIST@ 816=     7224.918637,     9181.805244,    13715.984474,    19886.879482
LIST@ 820=    21857.001326,    13805.526293,     7125.401930,     5619.085071
LIST@ 824=     5463.280800,     5362.053323,     5420.789224,     5289.110717
LIST@ 828=     5238.462058,     5313.374683,     5325.226447,     5236.904396
LIST@ 832=     5274.154040,     5215.874612,     5155.542031,     5176.731738
LIST@ 836=     5180.805523,     5118.332928,     5045.296672,     5121.802682
LIST@ 840=     5090.966783,     5168.080265,     5222.977210,     5124.932098
LIST@ 844=     5118.340659,     5116.527614,     5134.494042,     5273.410439
LIST@ 848=     5299.138943,     5470.446385,     5799.792921,     6504.615115
LIST@ 852=     7389.995396,     7310.303390,     6558.532773,     5936.453767
LIST@ 856=     5385.398653,     4893.254124,     4427.507776,     4227.988980
LIST@ 860=     4078.278309,     3953.146163,     4077.651052,     4118.352943
LIST@ 864=     4061.021606,     3982.991764,     3973.851098,     4067.375770
LIST@ 868=     3999.113889,     4096.769844,     3962.678528,     3866.701303
LIST@ 872=     4147.374858,     4187.227551,     4655.559003,     4764.135396
LIST@ 876=     4896.057998,     4468.420360,     4259.407498,     3982.016896
LIST@ 880=     3602.005800,     3440.178303,     3404.505753,     3436.611054
LIST@ 884=     3477.538290,     3446.547531,     3431.237422,     3491.693190
LIST@ 888=     3450.975823,     3585.819765,     3467.645562,     3478.841005
LIST@ 892=     3490.695836,     3593.452988,     3538.124221,     3468.960651
LIST@ 896=     3596.003195,     3476.358748,     3494.911317,     3561.832688
LIST@ 900=     3464.869379,     3408.554770,     3487.691554,     3533.560441
LIST@ 904=     3490.832310,     3563.037775,     3497.745046,     3546.230035
LIST@ 908=     3564.166854,     3600.508710,     3538.636129,     3529.497339
LIST@ 912=     3549.108720,     3604.111954,     3528.787698,     3530.553521
LIST@ 916=     3545.820987,     3545.262219,     3651.266713,     3662.224506
LIST@ 920=     3571.780169,     3521.425971,     3527.013747,     3541.776214
LIST@ 924=     3511.269875,     3583.988609,     3578.462107,     3594.745463
LIST@ 928=     3727.963043,     3603.762578,     3625.624778,     3717.588956
LIST@ 932=     3698.686927,     3573.930218,     3617.190505,     3664.313736
LIST@ 936=     3704.120516,     3701.965282,     3560.451944,     3584.153816
LIST@ 940=     3675.727936,     3684.761007,     3612.629472,     3531.049033
LIST@ 944=     3583.961732,     3581.059282,     3654.267807,     3605.528527
LIST@ 948=     3803.174776,     3968.621912,     4368.425368,     4208.873993
LIST@ 952=     3889.274039,     3795.854750,     3614.585984,     3694.070215
LIST@ 956=     3631.584607,     3557.170574,     3623.484237,     3655.153604
LIST@ 960=     3528.607319,     3614.604689,     3699.203501,     3673.314637
LIST@ 964=     3705.453327,     3701.877429,     3680.818693,     3680.612928
LIST@ 968=     3825.415995,     3755.973800,     3743.133472,     3788.990262
LIST@ 972=     3765.305833,     3697.773754,     3831.556416,     3755.272448
LIST@ 976=     3727.367058,     3790.551252,     3795.570133,     3794.752432
LIST@ 980=     3935.377790,     3809.411169,     3905.923838,     3848.473672
LIST@ 984=     3866.451593,     3845.923619,     3800.571786,     3769.863549
LIST@ 988=     3827.468380,     3839.027616,     3955.399748,     3950.203804
LIST@ 992=     4116.705506,     3973.324730,     3944.816246,     3957.017131
LIST@ 996=     3996.694205,     3949.907202,     4045.088306,     3988.168614
LIST@1000=     4027.347299,     3977.752689,     4034.871031,     4108.902806
LIST@1004=     4017.368199,     4145.530666,     4022.904364,     4174.147231
LIST@1008=     4027.914673,     4111.392700,     4176.452007,     4142.939251
LIST@1012=     4134.181813,     4092.390558,     4312.082900,     4202.832235
LIST@1016=     4155.389446,     4290.112904,     4193.058371,     4368.785400
LIST@1020=     4228.242986,     4235.709625,     4287.748917,     4205.145829
LIST@1024=     4244.270252,     4452.516493,     4338.130183,     4382.114610
LIST@1028=     4437.346901,     4282.621638,     4398.775653,     4422.754975
LIST@1032=     4444.026098,     4360.748007,     4421.589217,     4538.550228
LIST@1036=     4498.609008,     4597.081080,     4559.435115,     4595.980811
LIST@1040=     4677.776635,     4521.010009,     4647.139757,     4692.231067
LIST@1044=     4696.477027,     4781.557751,     4709.457890,     4489.659517
LIST@1048=     4506.966257,     4252.287002,     4326.554975,     4150.557496
LIST@1052=     3914.809323,     3801.596047,     3675.349154,     3485.283124
LIST@1056=     3415.050398,     3348.041830,     3245.157559,     3224.474840
LIST@1060=     3458.845474,     4181.056604,     4778.135419,     6571.158230
LIST@1064=    13412.629417,    20015.758265,    11965.188111,     4581.132324
LIST@1068=     3213.311676,     2982.843785,     2818.149620,     2891.913499
LIST@1072=     2802.961679,     2791.549949,     2820.002604,     2812.451563
LIST@1076=     2751.381329,     2793.517924,     2790.531966,     2875.014118
LIST@1080=     2669.470817,     2798.094695,     2732.000561,     2724.891406
LIST@1084=     2700.542167,     2781.420316,     2680.631718,     2781.869515
LIST@1088=     2911.957084,     2797.376072,     2806.429872,     2755.429999
LIST@1092=     2769.924922,     2766.576658,     2793.130195,     2804.320864
LIST@1096=     2811.839284,     2715.922054,     2767.707733,     2854.844185
LIST@1100=     2796.583845,     2767.108944,     2790.139030,     2782.382279
LIST@1104=     2771.114687,     2915.339372,     2854.235992,     2800.228161
LIST@1108=     2824.506316,     2777.873545,     2906.716101,     2779.703980
LIST@1112=     2756.231564,     2898.368514,     2905.256222,     2874.162862
LIST@1116=     2997.822381,     2905.829404,     2863.004783,     2829.905678
LIST@1120=     2859.993655,     2917.148977,     2852.836127,     2950.464712
LIST@1124=     2875.285184,     2997.459704,     2867.596868,     2872.403317
LIST@1128=     2996.530280,     2968.587996,     2947.016143,     2888.128821
LIST@1132=     2908.544666,     2897.877317,     3040.742257,     2899.243828
LIST@1136=     2963.156827,     2928.735088,     2992.882403,     3025.250090
LIST@1140=     3050.767767,     3004.682265,     2964.911543,     3020.665172
LIST@1144=     2945.533015,     2996.043210,     3025.769939,     3028.450338
LIST@1148=     3050.000488,     3044.169831,     3010.990237,     3068.602588
LIST@1152=     3044.147307,     3125.380454,     3105.432922,     3025.795263
LIST@1156=     3075.262124,     3095.985290,     3111.738856,     3092.277134
LIST@1160=     3110.522907,     3176.969167,     3120.623327,     3090.715049
LIST@1164=     3094.402226,     3068.420933,     3034.120024,     3117.934827
LIST@1168=     3081.867016,     3082.088317,     3173.906118,     3288.194829
LIST@1172=     3175.049823,     3065.243171,     3196.295153,     3091.200023
LIST@1176=     3158.910961,     3223.091197,     3158.057997,     3250.534367
LIST@1180=     3264.368995,     3209.540153,     3241.299870,     3200.822494
LIST@1184=     3241.748409,     3270.873836,     3318.188794,     3235.956532
LIST@1188=     3272.911166,     3259.501184,     3274.730949,     3402.092834
LIST@1192=     3344.540310,     3203.219177,     3323.833185,     3279.797413
LIST@1196=     3338.738842,     3382.978483,     3352.471107,     3354.532598
LIST@1200=     3321.066527,     3350.609453,     3272.908617,     3280.173711
LIST@1204=     3292.097781,     3297.719324,     3352.828983,     3325.456966
LIST@1208=     3486.975574,     3896.076843,     4008.400307,     4072.063602
LIST@1212=     3756.293729,     3427.030249,     3351.869219,     3370.839645
LIST@1216=     3328.543947,     3419.420424,     3360.136408,     3247.931533
LIST@1220=     3291.669309,     3278.392449,     3306.020963,     3374.651196
LIST@1224=     3308.114484,     3327.964287,     3371.426805,     3288.040806
LIST@1228=     3228.411384,     3323.323576,     3323.402026,     3305.632867
LIST@1232=     3309.291138,     3222.807375,     3381.134950,     3417.028927
LIST@1236=     3442.404624,     3375.714740,     3480.121503,     3487.272140
LIST@1240=     3484.322253,     3572.455525,     3511.164934,     3611.097389
LIST@1244=     3444.071498,     3507.339715,     3669.152119,     3747.812263
LIST@1248=     3587.793711,     3384.165563,     3317.342627,     3091.900952
LIST@1252=     3132.003213,     3027.167279,     3083.638864,     3188.842724
LIST@1256=     3226.633655,     3530.039098,     3906.570350,     4264.105052
LIST@1260=     4443.631807,     4592.842643,     4378.879557,     3834.205513
LIST@1264=     3277.575578,     3262.045929,     3324.025717,     3196.490547
LIST@1268=     2984.408323,     2754.471565,     2583.348402,     2499.325139
LIST@1272=     2498.352434,     2387.801390,     2472.281061,     2466.800785
LIST@1276=     2334.981781,     2467.441564,     2461.352690,     2473.120075
LIST@1280=     2435.990303,     2472.184026,     2477.590229,     2552.812228
LIST@1284=     2684.859691,     2700.251405,     2841.150722,     3116.595575
LIST@1288=     3333.175660,     3376.264520,     3036.587052,     2235.117198
LIST@1292=     1773.626457,     1868.238962,     1802.011840,     1707.401012
LIST@1296=     1551.330266,     1616.816683,     1860.913936,     2221.685619
LIST@1300=     2634.150568,     2653.361737,     2099.997344,     1381.195507
LIST@1304=      970.226945,      899.612287,      884.292024,      870.003400
LIST@1308=      859.635084,      897.569583,      826.541394,      887.273936
LIST@1312=      782.295310,      841.008718,      852.230054,      836.498436
LIST@1316=      783.271913,      749.527418,      815.611062,      777.204644
LIST@1320=      816.704223,      815.486760,      830.477521,      826.581169
LIST@1324=      900.890770,      944.590108,     1070.340963,     1259.244183
LIST@1328=     1308.004576,     1079.283372,      869.997436,      694.023945
LIST@1332=      649.665138,      595.301666,      559.002969,      628.242090
LIST@1336=      580.134263,      627.584318,      737.810091,     1382.484575
LIST@1340=     1737.312893,     1302.812632,      915.376964,      898.656762
LIST@1344=      934.499891,      942.557993,      902.119346,      812.014264
LIST@1348=      638.234676,      285.325101,       66.743690,       29.206279
LIST@1352=       15.209407,       13.456027,       15.233547,       10.124564
LIST@1356=        4.236017,        8.435855,        6.117145,        4.739954
LIST@1360=        5.199863
