;========================================================================
;Dump of DataSpace 'C:\Users\engineer\Documents\data\user data\amt342\ColinBundschu(crb273)\04-08-2025\Experiment\X-Ray001 400um - FG  ON\ZnFeCoMnO4\Zn2p Scan.VGD'
; on 8/4/2025 at 18:47:32
;========================================================================


;[Note that this file can be reloaded only if certain syntax rules are NOT broken]

$FORMAT=4


;Summary Properties present:
$PROPERTIES=SUM
DS_EXT_SUPROPID_TITLE       : VT_BSTR = 'Zn2p Scan'
DS_EXT_SUPROPID_SUBJECT     : VT_BSTR = '04-08-2025'
DS_EXT_SUPROPID_AUTHOR      : VT_BSTR = 'engineer'
DS_EXT_SUPROPID_COMMENTS    : VT_BSTR = ''
DS_EXT_SUPROPID_CREATED     : VT_DATE = 8/4/2025   21:24:43
DS_EXT_SUPROPID_SAVED       : VT_DATE = 8/4/2025   21:49:52

;Standard Properties present:
$PROPERTIES=STD
DS_GEPROPID_TECHNIQUE                       : VT_I4   = 1
DS_GEPROPID_INSTRUMENT                      : VT_BSTR = 'Nexsa_G2'
DS_GEPROPID_SOURCE_TYPE                     : VT_I4   = 1
DS_GEPROPID_GUID                            : VT_BSTR = '{FDC50F18-80D8-4B77-B2A3-8875B96924CB}'
DS_GEPROPID_SOURCE_GUID                     : VT_BSTR = '{FDC50F18-80D8-4B77-B2A3-8875B96924CB}'
DS_GEPROPID_EXPT_RUN_GUID                   : VT_BSTR = '{315F86BB-07DF-4D75-BCC0-21DA24A6008A}'
DS_GEPROPID_VALUE_TYPE                      : VT_I4   = 11
DS_GEPROPID_VALUE_LABEL                     : VT_BSTR = 'Counts'
DS_GEPROPID_VALUE_SYMBOL                    : VT_BSTR = 'C'
DS_GEPROPID_VALUE_UNIT                      : VT_BSTR = ''
DS_DATASTORAGEID_DATA_STORAGE_METHOD        : VT_I4   = 0
DS_SOPROPID_STYPE                           : VT_I4   = 10
DS_SOPROPID_MONO                            : VT_BOOL = True
DS_SOPROPID_ENERGY                          : VT_R4   = 1486.680054
DS_SOPROPID_VOLTAGE                         : VT_R4   = 12000.000000
DS_SOPROPID_CURRENT                         : VT_R4   = 0.010000
DS_SOPROPID_WIDTH                           : VT_R4   = 400.000000
DS_SOPROPID_LENGTH                          : VT_R4   = 400.000000
DS_SOPROPID_GUN                             : VT_I2   = 11
DS_STPROPID_POS_X                           : VT_I4   = 29251600
DS_STPROPID_POS_Y                           : VT_I4   = 20190300
DS_STPROPID_POS_Z                           : VT_I4   = 33810506
DS_STPROPID_POS_TILT                        : VT_I4   = 0
DS_STPROPID_POS_AZIM                        : VT_I4   = 0
DS_ACPROPID_START_TIME                      : VT_DATE = 8/4/2025   21:43:56
DS_ACPROPID_END_TIME                        : VT_DATE = 8/4/2025   21:49:52
DS_ACPROPID_ACQ_TIME                        : VT_R4   = 0.050000
DS_ACPROPID_PERIODS                         : VT_I4   = 15
DS_ACPROPID_MODE                            : VT_I2   = 2
DS_ACPROPID_DIRECTION                       : VT_I2   = 1
DS_ACPROPID_SIG_COMP                        : VT_BOOL = True
DS_ACPROPID_EV_SCALE                        : VT_I2   = 1
DS_SOURCE_FLOODGUNPROPID_CURRENT            : VT_R4   = 150.000000
DS_SOURCE_FLOODGUNPROPID_ENERGY             : VT_R4   = 0.200000
DS_SOURCE_FLOODGUNPROPID_DESCRIPTION        : VT_BSTR = 'Default FG03 mode'
DS_ANPROPID_MODE                            : VT_I2   = 1
DS_ANPROPID_PASS                            : VT_R4   = 50.000000
DS_ANPROPID_WORK_FTN                        : VT_R4   = 4.200000
DS_ANPROPID_LENS_MODE_NAME                  : VT_BSTR = 'Standard'
DS_ANPROPID_TXFN_COEFFS                     : VT_I4   = 4
DS_ANPROPID_TXFN_REMOVED                    : VT_BOOL = True
; Property list for DS_ANPROPID_TXFN_COEFF (expecting 4) follows:
DS_ANPROPID_TXFN_COEFF[0]                        : VT_R4   = 4.730430
DS_ANPROPID_TXFN_COEFF[1]                        : VT_R4   = 0.641629
DS_ANPROPID_TXFN_COEFF[2]                        : VT_R4   = -0.583938
DS_ANPROPID_TXFN_COEFF[3]                        : VT_R4   = 0.061485

;Extended Properties present:
$PROPERTIES=EXT
;   NONE found

;========================================================================

;DataSpace has 1 data axes as follows:
;   #=      start,     end,       numSpaceAxes
$DATAAXES=1,#empty#
    0=        0,      370,          1

;========================================================================

;DataSpace has 1 space axes as follows:
;   #=       start,         width,       numPoints,  axisType,   linear,  symbol,     unit,      label
$SPACEAXES=1
    0=     434.680000,       0.100000,      371,  ENERGY,   LINEAR,  'E',   'eV',    'Energy'

;========================================================================

;Values on axis 0
$DATA=*
LIST@   0=    58860.877307,    58997.313025,    58803.006167,    59050.872963
LIST@   4=    58934.855791,    58594.869728,    59128.111479,    58923.146623
LIST@   8=    59366.996670,    58832.888438,    58768.325475,    58866.833922
LIST@  12=    58993.799712,    58852.199419,    58856.205318,    59098.888671
LIST@  16=    59312.942328,    59170.673681,    59110.856928,    58673.341247
LIST@  20=    58848.666424,    58788.906840,    58711.472654,    58912.634381
LIST@  24=    58898.368901,    59139.651990,    58989.939367,    59206.186399
LIST@  28=    59219.084066,    59047.224223,    59280.828805,    59428.410190
LIST@  32=    59266.818769,    59083.889231,    59102.912204,    59210.063879
LIST@  36=    59297.905626,    59547.935272,    59561.013622,    59357.800831
LIST@  40=    59442.512436,    59505.418509,    59634.520569,    59734.674387
LIST@  44=    59737.642446,    59399.952125,    59742.287870,    59675.190198
LIST@  48=    59913.918838,    59920.729535,    59773.441591,    60019.700779
LIST@  52=    60134.452512,    60075.212016,    60248.300680,    60290.190007
LIST@  56=    60038.368744,    60351.323051,    60577.227433,    60757.324862
LIST@  60=    60943.434096,    61324.696248,    61226.587573,    61561.910935
LIST@  64=    62055.501666,    62134.270690,    62210.448755,    62562.213441
LIST@  68=    63057.987511,    63639.254755,    64300.674190,    64724.128308
LIST@  72=    65348.769418,    65612.517624,    66892.128979,    67657.284433
LIST@  76=    68366.243539,    69097.971519,    69583.287898,    69826.786652
LIST@  80=    70091.426389,    70246.890757,    69732.287583,    69630.335518
LIST@  84=    68875.370930,    68174.100743,    67359.136517,    65991.214775
LIST@  88=    65630.722852,    64788.345296,    63933.385700,    63242.727509
LIST@  92=    62342.447197,    62077.183780,    61382.215591,    61455.555626
LIST@  96=    60981.975846,    60717.576140,    60438.111247,    60617.486157
LIST@ 100=    60415.605606,    60216.123308,    60154.529539,    59921.455710
LIST@ 104=    59676.978151,    59803.616158,    59713.056657,    59763.813247
LIST@ 108=    59822.148381,    59325.198151,    59656.415856,    59650.774026
LIST@ 112=    59464.763229,    59576.535909,    60063.591022,    59546.388504
LIST@ 116=    59708.840775,    59634.361850,    59609.105524,    59366.396895
LIST@ 120=    59422.711898,    59444.141571,    59673.598492,    59341.417295
LIST@ 124=    59417.911632,    59606.625115,    59150.994870,    59711.971775
LIST@ 128=    59200.891972,    59588.315356,    59650.774540,    59625.510695
LIST@ 132=    59362.742454,    59305.450115,    59304.730369,    59522.685453
LIST@ 136=    59585.756258,    59331.502450,    59728.315120,    59404.986403
LIST@ 140=    59237.462353,    58998.191686,    59106.069346,    59176.899948
LIST@ 144=    59128.967103,    59076.033871,    58940.190166,    59214.802311
LIST@ 148=    59571.313759,    59474.616682,    58947.273549,    59236.365420
LIST@ 152=    59510.403865,    59275.259106,    59025.883855,    59126.466933
LIST@ 156=    59005.141091,    59295.805289,    58966.644512,    59121.377763
LIST@ 160=    59069.552509,    59204.645986,    59134.905662,    59093.402887
LIST@ 164=    58922.572164,    59163.106706,    58843.179515,    59125.272614
LIST@ 168=    58938.483360,    58890.082452,    59258.305271,    59181.962376
LIST@ 172=    59001.193347,    58858.644618,    59115.110179,    58856.781761
LIST@ 176=    59011.937513,    59127.017649,    59063.776490,    58872.695447
LIST@ 180=    59039.716106,    59349.459590,    58775.673652,    58789.505262
LIST@ 184=    58943.921529,    58881.088746,    58942.164138,    59156.989962
LIST@ 188=    59139.131688,    58988.153060,    58507.368194,    58620.975516
LIST@ 192=    58804.684721,    58893.365580,    58986.055981,    59220.538925
LIST@ 196=    58849.407859,    58760.413798,    58834.482853,    58950.819521
LIST@ 200=    58679.129383,    58974.273283,    58585.119872,    59134.254313
LIST@ 204=    58863.392791,    59228.115781,    58885.797825,    59017.936681
LIST@ 208=    58771.602969,    59002.944514,    59146.800316,    58738.282866
LIST@ 212=    59084.346598,    59166.692351,    59154.901065,    58878.061507
LIST@ 216=    58452.080490,    59087.664243,    59006.706999,    58692.594440
LIST@ 220=    58900.436070,    59189.261423,    58973.825460,    58847.683279
LIST@ 224=    58559.848573,    59001.423790,    59198.697461,    58808.854294
LIST@ 228=    58522.706566,    58759.531280,    58752.236021,    59275.560415
LIST@ 232=    58615.422940,    59183.477278,    58848.939471,    58568.277279
LIST@ 236=    58758.492222,    58599.028100,    58693.343954,    58905.662575
LIST@ 240=    58558.188794,    58621.390397,    58938.746798,    58771.315665
LIST@ 244=    58466.312651,    58513.602142,    58638.149750,    58535.825312
LIST@ 248=    58706.110388,    58771.756373,    58907.798492,    58834.056257
LIST@ 252=    58806.112043,    58774.375666,    58481.622424,    58816.382709
LIST@ 256=    58904.475562,    58394.464927,    58556.333533,    58611.289629
LIST@ 260=    58928.345738,    58862.763994,    59169.035316,    58981.945237
LIST@ 264=    59242.422890,    59348.125441,    58736.605379,    59303.773459
LIST@ 268=    59093.412402,    59042.886659,    58663.540068,    59338.910307
LIST@ 272=    59259.709939,    59240.443388,    59230.441445,    59215.570479
LIST@ 276=    58936.728231,    59378.944332,    59337.861981,    59398.392533
LIST@ 280=    59569.876272,    59569.631245,    59964.694747,    60061.222749
LIST@ 284=    59830.307917,    60136.177103,    60012.393924,    60506.081377
LIST@ 288=    60751.746870,    60807.982737,    61062.980752,    61523.308167
LIST@ 292=    61769.390851,    62275.175510,    62660.718998,    62815.673845
LIST@ 296=    63557.994209,    64632.042495,    65302.692265,    65787.933686
LIST@ 300=    67150.075345,    68475.950409,    70083.374398,    71547.073087
LIST@ 304=    72841.812904,    74984.069685,    76483.650211,    78197.244047
LIST@ 308=    79311.070725,    80753.139767,    81451.786666,    82026.271723
LIST@ 312=    82015.511460,    81760.718021,    80515.424822,    78706.800836
LIST@ 316=    77321.063891,    75086.818509,    73677.777910,    71453.356653
LIST@ 320=    69522.788660,    67503.188195,    66202.638458,    64925.353451
LIST@ 324=    63659.417555,    62751.914022,    62157.030682,    61570.676635
LIST@ 328=    60936.086335,    60644.131376,    60637.911886,    60274.544450
LIST@ 332=    60037.351879,    59604.265381,    59877.543288,    59393.779611
LIST@ 336=    59570.397884,    59450.559981,    58938.146058,    59106.880859
LIST@ 340=    59187.823152,    59043.502787,    59051.038363,    58996.701303
LIST@ 344=    58942.063740,    59106.179125,    59175.858151,    58915.717859
LIST@ 348=    58833.817699,    59003.438222,    58841.549584,    58817.892921
LIST@ 352=    58724.619333,    58643.980293,    58879.423830,    58673.968210
LIST@ 356=    59452.319597,    59015.739388,    58456.281799,    58915.278247
LIST@ 360=    58791.327230,    58755.169964,    59111.267038,    58919.988314
LIST@ 364=    59007.612521,    59172.260974,    58943.923444,    58757.933965
LIST@ 368=    58803.377777,    59018.433114,    58353.522640
