;========================================================================
;Dump of DataSpace 'C:\Users\engineer\Documents\data\user data\amt342\ColinBundschu(crb273)\04-08-2025\Experiment\X-Ray001 400um - FG  ON\CoMnFeO4\Co2p Scan.VGD'
; on 8/4/2025 at 18:47:31
;========================================================================


;[Note that this file can be reloaded only if certain syntax rules are NOT broken]

$FORMAT=4


;Summary Properties present:
$PROPERTIES=SUM
DS_EXT_SUPROPID_TITLE       : VT_BSTR = 'Co2p Scan'
DS_EXT_SUPROPID_SUBJECT     : VT_BSTR = '04-08-2025'
DS_EXT_SUPROPID_AUTHOR      : VT_BSTR = 'engineer'
DS_EXT_SUPROPID_COMMENTS    : VT_BSTR = ''
DS_EXT_SUPROPID_CREATED     : VT_DATE = 8/4/2025   21:24:44
DS_EXT_SUPROPID_SAVED       : VT_DATE = 8/4/2025   22:46:27

;Standard Properties present:
$PROPERTIES=STD
DS_GEPROPID_TECHNIQUE                       : VT_I4   = 1
DS_GEPROPID_INSTRUMENT                      : VT_BSTR = 'Nexsa_G2'
DS_GEPROPID_SOURCE_TYPE                     : VT_I4   = 1
DS_GEPROPID_GUID                            : VT_BSTR = '{F21B3FD0-4B44-4BE9-909F-B0F4CBB60581}'
DS_GEPROPID_SOURCE_GUID                     : VT_BSTR = '{F21B3FD0-4B44-4BE9-909F-B0F4CBB60581}'
DS_GEPROPID_EXPT_RUN_GUID                   : VT_BSTR = '{315F86BB-07DF-4D75-BCC0-21DA24A6008A}'
DS_GEPROPID_VALUE_TYPE                      : VT_I4   = 11
DS_GEPROPID_VALUE_LABEL                     : VT_BSTR = 'Counts'
DS_GEPROPID_VALUE_SYMBOL                    : VT_BSTR = 'C'
DS_GEPROPID_VALUE_UNIT                      : VT_BSTR = ''
DS_DATASTORAGEID_DATA_STORAGE_METHOD        : VT_I4   = 0
DS_SOPROPID_STYPE                           : VT_I4   = 10
DS_SOPROPID_MONO                            : VT_BOOL = True
DS_SOPROPID_ENERGY                          : VT_R4   = 1486.680054
DS_SOPROPID_VOLTAGE                         : VT_R4   = 12000.000000
DS_SOPROPID_CURRENT                         : VT_R4   = 0.010000
DS_SOPROPID_WIDTH                           : VT_R4   = 400.000000
DS_SOPROPID_LENGTH                          : VT_R4   = 400.000000
DS_SOPROPID_GUN                             : VT_I2   = 11
DS_STPROPID_POS_X                           : VT_I4   = 49665300
DS_STPROPID_POS_Y                           : VT_I4   = 37810600
DS_STPROPID_POS_Z                           : VT_I4   = 34365925
DS_STPROPID_POS_TILT                        : VT_I4   = 0
DS_STPROPID_POS_AZIM                        : VT_I4   = 0
DS_ACPROPID_START_TIME                      : VT_DATE = 8/4/2025   22:40:01
DS_ACPROPID_END_TIME                        : VT_DATE = 8/4/2025   22:46:27
DS_ACPROPID_ACQ_TIME                        : VT_R4   = 0.050000
DS_ACPROPID_PERIODS                         : VT_I4   = 15
DS_ACPROPID_MODE                            : VT_I2   = 2
DS_ACPROPID_DIRECTION                       : VT_I2   = 1
DS_ACPROPID_SIG_COMP                        : VT_BOOL = True
DS_ACPROPID_EV_SCALE                        : VT_I2   = 1
DS_SOURCE_FLOODGUNPROPID_CURRENT            : VT_R4   = 150.000000
DS_SOURCE_FLOODGUNPROPID_ENERGY             : VT_R4   = 0.200000
DS_SOURCE_FLOODGUNPROPID_DESCRIPTION        : VT_BSTR = 'Default FG03 mode'
DS_ANPROPID_MODE                            : VT_I2   = 1
DS_ANPROPID_PASS                            : VT_R4   = 50.000000
DS_ANPROPID_WORK_FTN                        : VT_R4   = 4.200000
DS_ANPROPID_LENS_MODE_NAME                  : VT_BSTR = 'Standard'
DS_ANPROPID_TXFN_COEFFS                     : VT_I4   = 4
DS_ANPROPID_TXFN_REMOVED                    : VT_BOOL = True
; Property list for DS_ANPROPID_TXFN_COEFF (expecting 4) follows:
DS_ANPROPID_TXFN_COEFF[0]                        : VT_R4   = 4.730430
DS_ANPROPID_TXFN_COEFF[1]                        : VT_R4   = 0.641629
DS_ANPROPID_TXFN_COEFF[2]                        : VT_R4   = -0.583938
DS_ANPROPID_TXFN_COEFF[3]                        : VT_R4   = 0.061485

;Extended Properties present:
$PROPERTIES=EXT
;   NONE found

;========================================================================

;DataSpace has 1 data axes as follows:
;   #=      start,     end,       numSpaceAxes
$DATAAXES=1,#empty#
    0=        0,      410,          1

;========================================================================

;DataSpace has 1 space axes as follows:
;   #=       start,         width,       numPoints,  axisType,   linear,  symbol,     unit,      label
$SPACEAXES=1
    0=     674.680000,       0.100000,      411,  ENERGY,   LINEAR,  'E',   'eV',    'Energy'

;========================================================================

;Values on axis 0
$DATA=*
LIST@   0=    55664.787813,    55577.450856,    55750.363032,    55260.310445
LIST@   4=    55357.117603,    55315.957172,    55588.784944,    55463.652526
LIST@   8=    55259.211982,    55236.280249,    55317.079560,    55217.209857
LIST@  12=    55462.847673,    55582.839682,    55595.325217,    55733.489473
LIST@  16=    55462.429338,    55563.924005,    55350.230420,    55346.194455
LIST@  20=    55064.100586,    55495.186417,    55358.834636,    55770.632963
LIST@  24=    55602.643979,    55336.579737,    55561.167703,    55288.097011
LIST@  28=    55341.533277,    55439.920682,    55661.481338,    55696.619696
LIST@  32=    55293.401034,    55385.244207,    55383.453625,    55757.029843
LIST@  36=    55597.099230,    55072.348871,    55194.203624,    55420.461185
LIST@  40=    55636.324923,    55778.822319,    55939.751185,    55879.583644
LIST@  44=    55914.941067,    55544.347749,    55651.942057,    55801.657397
LIST@  48=    55699.803000,    56006.736169,    56129.061851,    55520.319174
LIST@  52=    56006.928089,    56271.865055,    56253.745478,    56214.253530
LIST@  56=    56401.316442,    56462.591751,    56471.739577,    56494.815915
LIST@  60=    56323.804698,    56466.267115,    56944.503767,    56579.844394
LIST@  64=    56551.342366,    56650.422934,    56787.055432,    56675.317305
LIST@  68=    56967.220117,    56994.179077,    56658.820715,    57296.034190
LIST@  72=    57121.794177,    57507.237421,    57428.773451,    57426.091213
LIST@  76=    57421.319578,    57787.470282,    57685.560682,    57860.278777
LIST@  80=    57743.122013,    58232.546600,    57577.099629,    58089.019811
LIST@  84=    58315.277896,    58047.728993,    58318.609972,    58242.620595
LIST@  88=    58329.919745,    58744.000115,    58664.270549,    58562.914898
LIST@  92=    58411.665797,    58907.551480,    58761.595654,    58436.262917
LIST@  96=    58199.819238,    58667.558195,    58607.617148,    58460.674515
LIST@ 100=    58261.045810,    57978.614379,    58535.388724,    58339.885366
LIST@ 104=    58176.701020,    57890.437875,    58008.164053,    57554.408777
LIST@ 108=    57846.059342,    57651.181328,    57497.325303,    56963.185234
LIST@ 112=    57019.974570,    56781.128011,    56904.249087,    56591.535628
LIST@ 116=    56318.818220,    56513.288791,    56890.652348,    56568.560409
LIST@ 120=    56275.435327,    56419.172751,    56079.612870,    55997.875793
LIST@ 124=    56271.344627,    56039.410164,    55997.178336,    56406.909687
LIST@ 128=    55961.196625,    56121.806322,    56734.324410,    56277.948834
LIST@ 132=    56588.299747,    57053.784788,    56891.493971,    57091.774641
LIST@ 136=    56861.242301,    57198.475856,    57599.736224,    57523.181270
LIST@ 140=    57899.483035,    57857.554183,    58053.681571,    58644.193697
LIST@ 144=    58744.657439,    58700.758693,    59222.645474,    59435.341091
LIST@ 148=    59517.375451,    60164.303122,    60328.216282,    60050.408179
LIST@ 152=    60307.508290,    60146.325874,    61024.355862,    61339.633713
LIST@ 156=    60988.274991,    61498.073364,    61988.931234,    61684.674047
LIST@ 160=    61999.640090,    61323.830218,    61492.313307,    61239.430441
LIST@ 164=    61632.091776,    61517.952565,    61081.209861,    60928.304254
LIST@ 168=    60425.659691,    60022.299820,    60016.082536,    59298.360842
LIST@ 172=    59110.041626,    58505.632791,    58029.213838,    57070.951895
LIST@ 176=    56721.433798,    56207.065575,    55730.671753,    55042.360225
LIST@ 180=    54995.656160,    53935.748582,    53702.229715,    52830.388930
LIST@ 184=    52650.959430,    52471.292270,    52065.120735,    52342.753821
LIST@ 188=    51710.868557,    51885.849097,    51378.148246,    51353.120121
LIST@ 192=    51375.911981,    51072.136480,    51367.870257,    50993.706772
LIST@ 196=    51002.462315,    51093.983676,    51409.932546,    51113.194931
LIST@ 200=    51075.409140,    51176.947958,    51417.038557,    51340.848869
LIST@ 204=    51207.047964,    51422.088881,    51529.284571,    51436.576687
LIST@ 208=    51560.924367,    51921.323633,    51880.954806,    52055.748825
LIST@ 212=    52090.502254,    52352.611620,    52113.520146,    52229.319772
LIST@ 216=    52233.566957,    52419.090800,    52420.995332,    52509.942849
LIST@ 220=    52501.652185,    53256.786540,    52797.043310,    52971.122600
LIST@ 224=    52916.288685,    52971.797230,    52729.864070,    52719.382907
LIST@ 228=    52809.120485,    53350.498534,    53227.060247,    53286.137358
LIST@ 232=    53412.015281,    53610.782657,    53958.071140,    53887.365053
LIST@ 236=    53779.623082,    53707.823069,    53980.888175,    54127.845962
LIST@ 240=    54563.441661,    54638.077127,    54638.172540,    54928.362406
LIST@ 244=    54904.770572,    55117.707416,    54891.855290,    55261.290620
LIST@ 248=    54981.094169,    55360.480606,    55587.912958,    55592.431131
LIST@ 252=    55231.943200,    55775.804579,    55718.447656,    55597.587874
LIST@ 256=    55501.403987,    55656.499053,    56154.336878,    55892.953885
LIST@ 260=    55684.754567,    55666.861401,    55922.255613,    55804.195806
LIST@ 264=    55781.439587,    55996.960136,    55778.784235,    55494.120055
LIST@ 268=    56181.114718,    55354.393789,    55576.413624,    55653.377236
LIST@ 272=    55719.564269,    55414.724548,    55400.445371,    55409.637311
LIST@ 276=    55594.680161,    55515.188460,    55239.973301,    55568.319120
LIST@ 280=    55632.253968,    55636.268952,    56053.429827,    56295.829908
LIST@ 284=    55927.664783,    56470.724462,    56572.782166,    56745.439369
LIST@ 288=    57082.362912,    57606.262061,    57607.306462,    57752.592643
LIST@ 292=    58141.604093,    58545.099417,    59194.438965,    59394.571222
LIST@ 296=    59899.372460,    60298.890504,    60909.900935,    61449.778206
LIST@ 300=    61710.950563,    62061.240083,    62436.847935,    62818.415977
LIST@ 304=    63713.549696,    64312.926345,    65524.880696,    65620.001892
LIST@ 308=    65790.718697,    66452.373935,    67135.106633,    67336.402456
LIST@ 312=    67588.447842,    68138.498098,    68547.629427,    68720.812022
LIST@ 316=    68908.446036,    69280.249230,    69114.784755,    69460.779765
LIST@ 320=    69181.294880,    68464.735279,    67842.705097,    67242.766333
LIST@ 324=    66115.673004,    65195.966532,    64362.193379,    62297.259568
LIST@ 328=    60994.390080,    59078.023842,    58160.270772,    56805.057216
LIST@ 332=    55536.668738,    53903.057647,    52747.800276,    51790.427715
LIST@ 336=    50460.405886,    49497.749093,    49230.111720,    48348.198844
LIST@ 340=    47657.391521,    47543.187887,    46599.495441,    46246.763273
LIST@ 344=    46095.378923,    46033.456623,    45949.574026,    45233.964494
LIST@ 348=    45256.267986,    45252.071263,    45035.224699,    44809.805685
LIST@ 352=    44905.527001,    44840.292769,    44844.944770,    44810.812742
LIST@ 356=    44572.615987,    44455.631452,    44575.626682,    44646.189676
LIST@ 360=    44511.620544,    44259.826185,    44295.667512,    44369.778815
LIST@ 364=    44486.695962,    44386.645857,    44325.516325,    44266.110726
LIST@ 368=    44100.538324,    44376.528261,    44183.343946,    44312.313203
LIST@ 372=    43957.554975,    44162.513608,    44282.173105,    44448.149875
LIST@ 376=    44327.913530,    43834.816151,    44058.344138,    44071.886208
LIST@ 380=    44259.088185,    44041.658459,    43956.779205,    44074.809550
LIST@ 384=    44331.950076,    44052.850856,    43969.505982,    43958.966534
LIST@ 388=    43687.612875,    43574.790770,    43929.085337,    43723.001635
LIST@ 392=    43607.378137,    43694.012217,    43639.502516,    43849.300101
LIST@ 396=    43924.397816,    43472.269246,    43627.139344,    43666.113990
LIST@ 400=    43558.143215,    43303.996735,    43460.830120,    43487.450196
LIST@ 404=    43445.396368,    43495.756080,    43180.054635,    43197.350725
LIST@ 408=    43385.610743,    43313.093314,    43315.565566
