;========================================================================
;Dump of DataSpace 'C:\Users\engineer\Documents\data\user data\amt342\ColinBundschu(crb273)\04-08-2025\Experiment\X-Ray001 400um - FG  ON\CoMnFeO4\Fe2p Scan.VGD'
; on 8/4/2025 at 18:47:31
;========================================================================


;[Note that this file can be reloaded only if certain syntax rules are NOT broken]

$FORMAT=4


;Summary Properties present:
$PROPERTIES=SUM
DS_EXT_SUPROPID_TITLE       : VT_BSTR = 'Fe2p Scan'
DS_EXT_SUPROPID_SUBJECT     : VT_BSTR = '04-08-2025'
DS_EXT_SUPROPID_AUTHOR      : VT_BSTR = 'engineer'
DS_EXT_SUPROPID_COMMENTS    : VT_BSTR = ''
DS_EXT_SUPROPID_CREATED     : VT_DATE = 8/4/2025   21:24:44
DS_EXT_SUPROPID_SAVED       : VT_DATE = 8/4/2025   22:40:01

;Standard Properties present:
$PROPERTIES=STD
DS_GEPROPID_TECHNIQUE                       : VT_I4   = 1
DS_GEPROPID_INSTRUMENT                      : VT_BSTR = 'Nexsa_G2'
DS_GEPROPID_SOURCE_TYPE                     : VT_I4   = 1
DS_GEPROPID_GUID                            : VT_BSTR = '{DCB633B9-0E6D-48D8-80E1-CC457CE86A4E}'
DS_GEPROPID_SOURCE_GUID                     : VT_BSTR = '{DCB633B9-0E6D-48D8-80E1-CC457CE86A4E}'
DS_GEPROPID_EXPT_RUN_GUID                   : VT_BSTR = '{315F86BB-07DF-4D75-BCC0-21DA24A6008A}'
DS_GEPROPID_VALUE_TYPE                      : VT_I4   = 11
DS_GEPROPID_VALUE_LABEL                     : VT_BSTR = 'Counts'
DS_GEPROPID_VALUE_SYMBOL                    : VT_BSTR = 'C'
DS_GEPROPID_VALUE_UNIT                      : VT_BSTR = ''
DS_DATASTORAGEID_DATA_STORAGE_METHOD        : VT_I4   = 0
DS_SOPROPID_STYPE                           : VT_I4   = 10
DS_SOPROPID_MONO                            : VT_BOOL = True
DS_SOPROPID_ENERGY                          : VT_R4   = 1486.680054
DS_SOPROPID_VOLTAGE                         : VT_R4   = 12000.000000
DS_SOPROPID_CURRENT                         : VT_R4   = 0.010000
DS_SOPROPID_WIDTH                           : VT_R4   = 400.000000
DS_SOPROPID_LENGTH                          : VT_R4   = 400.000000
DS_SOPROPID_GUN                             : VT_I2   = 11
DS_STPROPID_POS_X                           : VT_I4   = 49665300
DS_STPROPID_POS_Y                           : VT_I4   = 37810600
DS_STPROPID_POS_Z                           : VT_I4   = 34365925
DS_STPROPID_POS_TILT                        : VT_I4   = 0
DS_STPROPID_POS_AZIM                        : VT_I4   = 0
DS_ACPROPID_START_TIME                      : VT_DATE = 8/4/2025   22:31:37
DS_ACPROPID_END_TIME                        : VT_DATE = 8/4/2025   22:40:01
DS_ACPROPID_ACQ_TIME                        : VT_R4   = 0.050000
DS_ACPROPID_PERIODS                         : VT_I4   = 20
DS_ACPROPID_MODE                            : VT_I2   = 2
DS_ACPROPID_DIRECTION                       : VT_I2   = 1
DS_ACPROPID_SIG_COMP                        : VT_BOOL = True
DS_ACPROPID_EV_SCALE                        : VT_I2   = 1
DS_SOURCE_FLOODGUNPROPID_CURRENT            : VT_R4   = 150.000000
DS_SOURCE_FLOODGUNPROPID_ENERGY             : VT_R4   = 0.200000
DS_SOURCE_FLOODGUNPROPID_DESCRIPTION        : VT_BSTR = 'Default FG03 mode'
DS_ANPROPID_MODE                            : VT_I2   = 1
DS_ANPROPID_PASS                            : VT_R4   = 50.000000
DS_ANPROPID_WORK_FTN                        : VT_R4   = 4.200000
DS_ANPROPID_LENS_MODE_NAME                  : VT_BSTR = 'Standard'
DS_ANPROPID_TXFN_COEFFS                     : VT_I4   = 4
DS_ANPROPID_TXFN_REMOVED                    : VT_BOOL = True
; Property list for DS_ANPROPID_TXFN_COEFF (expecting 4) follows:
DS_ANPROPID_TXFN_COEFF[0]                        : VT_R4   = 4.730430
DS_ANPROPID_TXFN_COEFF[1]                        : VT_R4   = 0.641629
DS_ANPROPID_TXFN_COEFF[2]                        : VT_R4   = -0.583938
DS_ANPROPID_TXFN_COEFF[3]                        : VT_R4   = 0.061485

;Extended Properties present:
$PROPERTIES=EXT
;   NONE found

;========================================================================

;DataSpace has 1 data axes as follows:
;   #=      start,     end,       numSpaceAxes
$DATAAXES=1,#empty#
    0=        0,      400,          1

;========================================================================

;DataSpace has 1 space axes as follows:
;   #=       start,         width,       numPoints,  axisType,   linear,  symbol,     unit,      label
$SPACEAXES=1
    0=     746.680000,       0.100000,      401,  ENERGY,   LINEAR,  'E',   'eV',    'Energy'

;========================================================================

;Values on axis 0
$DATA=*
LIST@   0=    46098.078868,    46237.254185,    46240.532067,    45796.249203
LIST@   4=    46027.342706,    45788.103016,    46088.431367,    45905.234025
LIST@   8=    45977.792559,    45926.683807,    46024.474274,    46297.061913
LIST@  12=    46197.638898,    46172.947771,    46213.742668,    46116.761707
LIST@  16=    46004.777514,    45989.023740,    46122.433459,    45842.027718
LIST@  20=    46047.660971,    46513.381270,    46350.451744,    46068.238203
LIST@  24=    46170.662973,    46023.142222,    45894.730009,    46024.047238
LIST@  28=    46120.888127,    45873.189388,    45852.528850,    46075.006452
LIST@  32=    45958.136931,    46080.272283,    46128.346599,    46028.498041
LIST@  36=    45984.951858,    45802.304984,    45998.950516,    46235.847899
LIST@  40=    46263.687848,    46237.489104,    46078.999205,    45920.314645
LIST@  44=    46233.634266,    46087.158338,    45943.062999,    46312.375763
LIST@  48=    46174.448140,    46256.738231,    46265.618960,    46286.589283
LIST@  52=    46270.267254,    45903.294741,    46274.747435,    46038.940083
LIST@  56=    45936.646950,    46389.117496,    46311.692681,    46252.095647
LIST@  60=    45964.321315,    45948.025940,    46091.710709,    45872.549848
LIST@  64=    46114.078099,    46480.333075,    46427.612110,    46169.564428
LIST@  68=    45969.039608,    45875.239002,    45976.113321,    46086.197170
LIST@  72=    45916.117769,    45990.321462,    46185.811845,    46219.020660
LIST@  76=    45970.706744,    45858.100964,    45868.018919,    45815.999359
LIST@  80=    45991.399227,    45845.813959,    46163.448662,    46076.492406
LIST@  84=    45988.965639,    46099.189053,    45869.755665,    45900.358130
LIST@  88=    46105.232544,    45825.243024,    45902.416606,    45718.390849
LIST@  92=    45725.824202,    45674.234908,    45803.980750,    45417.693049
LIST@  96=    45927.356244,    45601.458845,    45531.068464,    45717.877659
LIST@ 100=    45602.505667,    45369.490723,    45703.090684,    45422.437405
LIST@ 104=    45728.975855,    45777.064887,    45614.661692,    45880.050474
LIST@ 108=    45723.358703,    45741.545852,    46117.322894,    46095.133497
LIST@ 112=    45313.545706,    45493.828842,    45699.125542,    45841.733001
LIST@ 116=    45680.938839,    45856.690079,    45912.850093,    45842.726480
LIST@ 120=    45606.297664,    46039.058478,    45750.049366,    45566.367112
LIST@ 124=    46072.931482,    45989.212503,    45978.852203,    45725.718740
LIST@ 128=    45782.192791,    45987.975277,    45885.380597,    46050.124401
LIST@ 132=    46001.478960,    45950.332139,    46136.779354,    46228.313602
LIST@ 136=    45821.129306,    46189.422030,    46341.816865,    46203.931040
LIST@ 140=    46219.702677,    46190.845043,    46436.873043,    46329.612795
LIST@ 144=    45940.226682,    46704.572237,    46344.390803,    46214.117077
LIST@ 148=    46775.824033,    46281.029483,    46727.217913,    46346.175545
LIST@ 152=    46374.855641,    46547.094306,    46819.361314,    46619.457609
LIST@ 156=    46791.751053,    46825.302858,    46955.477248,    46682.133767
LIST@ 160=    46798.720063,    46643.740969,    46987.730238,    47048.368187
LIST@ 164=    46741.740155,    47126.059347,    47038.917342,    46988.652071
LIST@ 168=    46674.994325,    47114.424159,    46766.345020,    46587.642168
LIST@ 172=    47144.080225,    47076.811359,    46785.685185,    46941.572570
LIST@ 176=    46886.267677,    46922.474888,    46896.058105,    46969.108782
LIST@ 180=    46958.918757,    47100.738489,    47065.575807,    46841.328467
LIST@ 184=    46913.292995,    47023.119890,    47273.465177,    47537.866272
LIST@ 188=    47469.426597,    47615.415713,    47201.504651,    47763.158903
LIST@ 192=    47723.168718,    47228.236956,    47427.289109,    47741.234360
LIST@ 196=    47797.832835,    47666.186129,    47978.601788,    47947.491730
LIST@ 200=    48126.112179,    48243.618773,    47997.801963,    48370.430039
LIST@ 204=    48147.364043,    47652.414897,    48157.623824,    48195.853232
LIST@ 208=    48375.687136,    48437.267374,    48259.679779,    48120.205472
LIST@ 212=    48429.219606,    48920.637561,    48842.072360,    48874.758757
LIST@ 216=    48694.524644,    48738.026151,    48481.427537,    48781.401876
LIST@ 220=    48887.395185,    48617.429300,    48707.137833,    48656.991355
LIST@ 224=    48509.673885,    48912.341831,    48968.323422,    49105.384125
LIST@ 228=    49168.263228,    48924.328866,    49074.705410,    48902.220169
LIST@ 232=    48694.812930,    49279.783713,    48861.951090,    48965.253862
LIST@ 236=    48790.766525,    48761.984404,    48850.164847,    49036.274414
LIST@ 240=    48855.638722,    49039.450066,    48863.509219,    49013.842765
LIST@ 244=    48726.126920,    49066.330806,    48780.230242,    48932.544201
LIST@ 248=    48889.895514,    49005.921557,    48948.567308,    49035.178316
LIST@ 252=    49172.183834,    48854.087044,    49399.887563,    49181.867789
LIST@ 256=    49375.934493,    49234.581691,    49294.533797,    49301.144490
LIST@ 260=    49300.428767,    49227.264563,    49244.187678,    49705.096429
LIST@ 264=    49392.634727,    49674.478060,    49720.284798,    49560.107121
LIST@ 268=    49641.895061,    49857.302720,    49923.236004,    49959.338672
LIST@ 272=    49953.913061,    49892.369209,    49997.215167,    49861.109311
LIST@ 276=    49705.113613,    49697.530527,    49407.481529,    49736.687212
LIST@ 280=    49750.092610,    49454.986739,    49471.117085,    49280.367457
LIST@ 284=    49329.398563,    49493.018427,    49697.996046,    49103.744921
LIST@ 288=    48911.007511,    49057.910962,    49114.427161,    48731.142362
LIST@ 292=    48679.461655,    48414.687439,    48203.607918,    47660.197093
LIST@ 296=    47582.444255,    47479.910249,    47082.668075,    46957.964066
LIST@ 300=    46686.423614,    46533.937261,    46646.588981,    46056.950152
LIST@ 304=    45915.893337,    45221.993477,    45106.978802,    44956.968709
LIST@ 308=    44738.728778,    44071.311010,    44020.629901,    43690.106831
LIST@ 312=    43422.067731,    42921.020459,    42869.196485,    42359.094108
LIST@ 316=    42777.544091,    42474.675581,    41983.821476,    41820.999860
LIST@ 320=    41256.036739,    41438.339405,    41332.877203,    41065.970935
LIST@ 324=    41092.429123,    40970.743954,    40644.158965,    41142.004531
LIST@ 328=    40977.062154,    40590.954185,    40783.986072,    40691.308968
LIST@ 332=    40793.257101,    40670.701226,    40428.929023,    40503.162845
LIST@ 336=    40509.828589,    40278.528051,    39917.156451,    40219.386360
LIST@ 340=    40123.052659,    40460.359522,    40107.140807,    40386.273888
LIST@ 344=    40441.184481,    40193.909602,    40126.089665,    40293.509647
LIST@ 348=    40384.828014,    40273.621797,    40240.539393,    40129.831012
LIST@ 352=    40213.733895,    40528.411981,    40069.251818,    40200.509829
LIST@ 356=    40036.534997,    40222.712657,    40150.807961,    40223.119399
LIST@ 360=    40209.263789,    40241.960442,    40180.266299,    40188.674818
LIST@ 364=    40127.252353,    40073.516615,    40235.538878,    40183.662058
LIST@ 368=    40055.758901,    40039.349099,    40367.255719,    40401.759073
LIST@ 372=    40451.359261,    40444.811149,    40340.987282,    40280.065280
LIST@ 376=    40201.505775,    40310.565056,    40208.235985,    40391.590099
LIST@ 380=    40422.004165,    40263.384333,    40201.044557,    40191.080565
LIST@ 384=    40474.017148,    40142.353043,    40372.159872,    40291.645342
LIST@ 388=    40318.587210,    40434.781200,    40366.985605,    40329.665797
LIST@ 392=    40347.740046,    40276.816824,    40248.139261,    40141.855968
LIST@ 396=    40578.854503,    40609.071128,    40879.511473,    40329.223686
LIST@ 400=    40481.201135
