;========================================================================
;Dump of DataSpace 'C:\Users\engineer\Documents\data\user data\amt342\ColinBundschu(crb273)\04-08-2025\Experiment\X-Ray001 400um - FG  ON\CoMnFeO4\Mn2p Scan.VGD'
; on 8/4/2025 at 18:47:31
;========================================================================


;[Note that this file can be reloaded only if certain syntax rules are NOT broken]

$FORMAT=4


;Summary Properties present:
$PROPERTIES=SUM
DS_EXT_SUPROPID_TITLE       : VT_BSTR = 'Mn2p Scan'
DS_EXT_SUPROPID_SUBJECT     : VT_BSTR = '04-08-2025'
DS_EXT_SUPROPID_AUTHOR      : VT_BSTR = 'engineer'
DS_EXT_SUPROPID_COMMENTS    : VT_BSTR = ''
DS_EXT_SUPROPID_CREATED     : VT_DATE = 8/4/2025   21:24:44
DS_EXT_SUPROPID_SAVED       : VT_DATE = 8/4/2025   22:31:37

;Standard Properties present:
$PROPERTIES=STD
DS_GEPROPID_TECHNIQUE                       : VT_I4   = 1
DS_GEPROPID_INSTRUMENT                      : VT_BSTR = 'Nexsa_G2'
DS_GEPROPID_SOURCE_TYPE                     : VT_I4   = 1
DS_GEPROPID_GUID                            : VT_BSTR = '{70C9BBC6-2E40-4DBE-8586-EA1776854E62}'
DS_GEPROPID_SOURCE_GUID                     : VT_BSTR = '{70C9BBC6-2E40-4DBE-8586-EA1776854E62}'
DS_GEPROPID_EXPT_RUN_GUID                   : VT_BSTR = '{315F86BB-07DF-4D75-BCC0-21DA24A6008A}'
DS_GEPROPID_VALUE_TYPE                      : VT_I4   = 11
DS_GEPROPID_VALUE_LABEL                     : VT_BSTR = 'Counts'
DS_GEPROPID_VALUE_SYMBOL                    : VT_BSTR = 'C'
DS_GEPROPID_VALUE_UNIT                      : VT_BSTR = ''
DS_DATASTORAGEID_DATA_STORAGE_METHOD        : VT_I4   = 0
DS_SOPROPID_STYPE                           : VT_I4   = 10
DS_SOPROPID_MONO                            : VT_BOOL = True
DS_SOPROPID_ENERGY                          : VT_R4   = 1486.680054
DS_SOPROPID_VOLTAGE                         : VT_R4   = 12000.000000
DS_SOPROPID_CURRENT                         : VT_R4   = 0.010000
DS_SOPROPID_WIDTH                           : VT_R4   = 400.000000
DS_SOPROPID_LENGTH                          : VT_R4   = 400.000000
DS_SOPROPID_GUN                             : VT_I2   = 11
DS_STPROPID_POS_X                           : VT_I4   = 49665300
DS_STPROPID_POS_Y                           : VT_I4   = 37810600
DS_STPROPID_POS_Z                           : VT_I4   = 34365925
DS_STPROPID_POS_TILT                        : VT_I4   = 0
DS_STPROPID_POS_AZIM                        : VT_I4   = 0
DS_ACPROPID_START_TIME                      : VT_DATE = 8/4/2025   22:28:28
DS_ACPROPID_END_TIME                        : VT_DATE = 8/4/2025   22:31:37
DS_ACPROPID_ACQ_TIME                        : VT_R4   = 0.050000
DS_ACPROPID_PERIODS                         : VT_I4   = 10
DS_ACPROPID_MODE                            : VT_I2   = 2
DS_ACPROPID_DIRECTION                       : VT_I2   = 1
DS_ACPROPID_SIG_COMP                        : VT_BOOL = True
DS_ACPROPID_EV_SCALE                        : VT_I2   = 1
DS_SOURCE_FLOODGUNPROPID_CURRENT            : VT_R4   = 150.000000
DS_SOURCE_FLOODGUNPROPID_ENERGY             : VT_R4   = 0.200000
DS_SOURCE_FLOODGUNPROPID_DESCRIPTION        : VT_BSTR = 'Default FG03 mode'
DS_ANPROPID_MODE                            : VT_I2   = 1
DS_ANPROPID_PASS                            : VT_R4   = 50.000000
DS_ANPROPID_WORK_FTN                        : VT_R4   = 4.200000
DS_ANPROPID_LENS_MODE_NAME                  : VT_BSTR = 'Standard'
DS_ANPROPID_TXFN_COEFFS                     : VT_I4   = 4
DS_ANPROPID_TXFN_REMOVED                    : VT_BOOL = True
; Property list for DS_ANPROPID_TXFN_COEFF (expecting 4) follows:
DS_ANPROPID_TXFN_COEFF[0]                        : VT_R4   = 4.730430
DS_ANPROPID_TXFN_COEFF[1]                        : VT_R4   = 0.641629
DS_ANPROPID_TXFN_COEFF[2]                        : VT_R4   = -0.583938
DS_ANPROPID_TXFN_COEFF[3]                        : VT_R4   = 0.061485

;Extended Properties present:
$PROPERTIES=EXT
;   NONE found

;========================================================================

;DataSpace has 1 data axes as follows:
;   #=      start,     end,       numSpaceAxes
$DATAAXES=1,#empty#
    0=        0,      280,          1

;========================================================================

;DataSpace has 1 space axes as follows:
;   #=       start,         width,       numPoints,  axisType,   linear,  symbol,     unit,      label
$SPACEAXES=1
    0=     826.680000,       0.100000,      281,  ENERGY,   LINEAR,  'E',   'eV',    'Energy'

;========================================================================

;Values on axis 0
$DATA=*
LIST@   0=    18385.630976,    18268.578581,    18149.648115,    18195.110604
LIST@   4=    18377.238816,    18378.293089,    18309.207293,    18236.972689
LIST@   8=    18261.440136,    18169.202653,    18156.953988,    18204.708939
LIST@  12=    18227.468238,    18010.358315,    17886.656411,    18377.290335
LIST@  16=    18543.491015,    18398.538934,    18397.836572,    18305.790464
LIST@  20=    18622.310210,    18625.504782,    18629.280354,    18618.830000
LIST@  24=    18715.499577,    18686.499952,    18664.125957,    18533.592458
LIST@  28=    18857.835310,    18966.085091,    18876.265008,    19011.856109
LIST@  32=    19058.396188,    19112.839236,    19227.429309,    19434.370057
LIST@  36=    19556.900087,    19695.901510,    19760.940027,    19918.134097
LIST@  40=    20185.390299,    20158.345684,    20282.401345,    20455.226994
LIST@  44=    20751.176704,    20630.378163,    20962.162282,    21001.960997
LIST@  48=    21164.563617,    21643.653023,    21686.162623,    21914.620039
LIST@  52=    22224.539042,    22412.967011,    22645.193175,    22807.945819
LIST@  56=    23071.084180,    23291.005496,    23653.123720,    23821.767091
LIST@  60=    24006.863249,    24347.430970,    24413.221393,    24746.089718
LIST@  64=    24661.428638,    24936.406392,    24918.983602,    24756.676204
LIST@  68=    24603.719983,    24736.083575,    24743.172726,    24511.777876
LIST@  72=    24146.431182,    24149.873169,    23881.384355,    23407.155982
LIST@  76=    23406.043496,    23118.435641,    22704.602909,    22359.857788
LIST@  80=    22101.008178,    21385.786814,    21140.891044,    20863.659296
LIST@  84=    20603.053461,    20008.438720,    19778.141728,    19458.923002
LIST@  88=    19253.508833,    18595.875405,    18260.265899,    17982.168326
LIST@  92=    17783.196306,    17723.878795,    17420.513611,    17267.353271
LIST@  96=    17142.432571,    16771.955738,    16572.276745,    16631.235986
LIST@ 100=    16501.927169,    16424.775792,    16215.028684,    16142.279723
LIST@ 104=    15893.869282,    15870.943326,    15909.588507,    15826.465172
LIST@ 108=    15622.478892,    15500.683886,    15528.779577,    15447.009367
LIST@ 112=    15404.732320,    15484.467260,    15532.249637,    15488.530784
LIST@ 116=    15512.405316,    15471.793014,    15565.823227,    15549.668496
LIST@ 120=    15336.053995,    15659.673815,    15521.128337,    15569.342065
LIST@ 124=    15626.982924,    15499.494712,    15801.637035,    15742.187299
LIST@ 128=    15966.033904,    15622.483924,    15844.491007,    15856.640988
LIST@ 132=    15898.977637,    16097.693489,    16046.077326,    16019.801683
LIST@ 136=    16215.559808,    16212.400198,    16403.658187,    16394.753842
LIST@ 140=    16597.522014,    16617.583032,    16965.884763,    17024.399448
LIST@ 144=    17083.035506,    17208.357845,    17296.828646,    17406.085755
LIST@ 148=    17631.654857,    17849.507226,    18347.855776,    18262.287922
LIST@ 152=    18333.277513,    18818.309373,    18895.572410,    19287.363618
LIST@ 156=    19448.047302,    19715.257527,    19791.449737,    20221.823671
LIST@ 160=    20701.564039,    21048.213973,    21387.031166,    21585.812334
LIST@ 164=    22319.667896,    22448.232818,    23150.182815,    23573.973707
LIST@ 168=    24069.806310,    24186.033339,    24722.227890,    25268.571383
LIST@ 172=    25811.189353,    26238.122953,    26558.007545,    26910.558687
LIST@ 176=    27420.138000,    27608.579851,    28064.634091,    27902.286523
LIST@ 180=    28555.905237,    28683.608281,    28384.212048,    28722.145685
LIST@ 184=    28549.516506,    28507.852374,    28520.957058,    28114.269209
LIST@ 188=    27852.485277,    27815.603738,    27317.503349,    26776.477810
LIST@ 192=    26379.644560,    25821.833210,    25052.807534,    24314.960482
LIST@ 196=    23373.333515,    22721.025770,    21805.526042,    20482.708687
LIST@ 200=    19557.905759,    18705.052678,    17749.612401,    16869.772543
LIST@ 204=    16050.476414,    15383.448751,    14726.780034,    13960.413455
LIST@ 208=    13435.924132,    12957.402922,    12358.238949,    11920.884739
LIST@ 212=    11868.412462,    11481.960933,    11239.258636,    11068.094158
LIST@ 216=    11045.873000,    10910.261261,    10924.319838,    10588.530035
LIST@ 220=    10601.914849,    10433.077024,    10560.715739,    10542.214462
LIST@ 224=    10483.349996,    10452.192243,    10369.309297,    10432.379236
LIST@ 228=    10252.285284,    10280.705439,    10262.872441,    10225.971255
LIST@ 232=    10376.879477,    10339.030260,    10432.028785,    10218.950853
LIST@ 236=    10350.920763,    10306.733324,    10174.479534,    10206.643007
LIST@ 240=    10231.357384,    10256.534398,    10025.502886,    10230.634740
LIST@ 244=    10330.710842,    10159.661157,    10247.995771,    10106.041379
LIST@ 248=    10109.883980,    10231.916178,    10196.366659,    10148.275532
LIST@ 252=    10182.726335,    10096.710221,    10173.331865,    10289.196778
LIST@ 256=    10214.921435,    10215.398754,    10254.348090,    10226.707684
LIST@ 260=    10199.065158,    10088.629418,    10011.181149,    10113.913152
LIST@ 264=    10052.638333,    10127.678971,    10228.997773,    10168.485886
LIST@ 268=    10207.831353,    10304.285903,    10243.797335,    10097.163535
LIST@ 272=    10204.827827,    10154.618897,    10215.580689,    10163.174753
LIST@ 276=    10201.269812,    10039.456333,    10066.881542,    10066.155231
LIST@ 280=    10175.868796
