;========================================================================
;Dump of DataSpace 'C:\Users\engineer\Documents\data\user data\amt342\ColinBundschu(crb273)\04-08-2025\Experiment\X-Ray001 400um - FG  ON\CoMnFeO4\XPS Survey.VGD'
; on 8/4/2025 at 18:47:31
;========================================================================


;[Note that this file can be reloaded only if certain syntax rules are NOT broken]

$FORMAT=4


;Summary Properties present:
$PROPERTIES=SUM
DS_EXT_SUPROPID_TITLE       : VT_BSTR = 'XPS Survey'
DS_EXT_SUPROPID_SUBJECT     : VT_BSTR = '04-08-2025'
DS_EXT_SUPROPID_AUTHOR      : VT_BSTR = 'engineer'
DS_EXT_SUPROPID_COMMENTS    : VT_BSTR = ''
DS_EXT_SUPROPID_CREATED     : VT_DATE = 8/4/2025   21:24:43
DS_EXT_SUPROPID_SAVED       : VT_DATE = 8/4/2025   22:26:00

;Standard Properties present:
$PROPERTIES=STD
DS_GEPROPID_TECHNIQUE                       : VT_I4   = 1
DS_GEPROPID_INSTRUMENT                      : VT_BSTR = 'Nexsa_G2'
DS_GEPROPID_SOURCE_TYPE                     : VT_I4   = 1
DS_GEPROPID_GUID                            : VT_BSTR = '{01DF269F-0B35-436F-A078-C6D524467D5F}'
DS_GEPROPID_SOURCE_GUID                     : VT_BSTR = '{01DF269F-0B35-436F-A078-C6D524467D5F}'
DS_GEPROPID_EXPT_RUN_GUID                   : VT_BSTR = '{315F86BB-07DF-4D75-BCC0-21DA24A6008A}'
DS_GEPROPID_VALUE_TYPE                      : VT_I4   = 11
DS_GEPROPID_VALUE_LABEL                     : VT_BSTR = 'Counts'
DS_GEPROPID_VALUE_SYMBOL                    : VT_BSTR = 'C'
DS_GEPROPID_VALUE_UNIT                      : VT_BSTR = ''
DS_DATASTORAGEID_DATA_STORAGE_METHOD        : VT_I4   = 0
DS_SOPROPID_STYPE                           : VT_I4   = 10
DS_SOPROPID_MONO                            : VT_BOOL = True
DS_SOPROPID_ENERGY                          : VT_R4   = 1486.680054
DS_SOPROPID_VOLTAGE                         : VT_R4   = 12000.000000
DS_SOPROPID_CURRENT                         : VT_R4   = 0.010000
DS_SOPROPID_WIDTH                           : VT_R4   = 400.000000
DS_SOPROPID_LENGTH                          : VT_R4   = 400.000000
DS_SOPROPID_GUN                             : VT_I2   = 11
DS_STPROPID_POS_X                           : VT_I4   = 49665300
DS_STPROPID_POS_Y                           : VT_I4   = 37810600
DS_STPROPID_POS_Z                           : VT_I4   = 34365925
DS_STPROPID_POS_TILT                        : VT_I4   = 0
DS_STPROPID_POS_AZIM                        : VT_I4   = 0
DS_ACPROPID_START_TIME                      : VT_DATE = 8/4/2025   22:24:17
DS_ACPROPID_END_TIME                        : VT_DATE = 8/4/2025   22:26:00
DS_ACPROPID_ACQ_TIME                        : VT_R4   = 0.010000
DS_ACPROPID_PERIODS                         : VT_I4   = 4
DS_ACPROPID_MODE                            : VT_I2   = 2
DS_ACPROPID_DIRECTION                       : VT_I2   = 1
DS_ACPROPID_SIG_COMP                        : VT_BOOL = True
DS_ACPROPID_EV_SCALE                        : VT_I2   = 1
DS_SOURCE_FLOODGUNPROPID_CURRENT            : VT_R4   = 150.000000
DS_SOURCE_FLOODGUNPROPID_ENERGY             : VT_R4   = 0.200000
DS_SOURCE_FLOODGUNPROPID_DESCRIPTION        : VT_BSTR = 'Default FG03 mode'
DS_ANPROPID_MODE                            : VT_I2   = 1
DS_ANPROPID_PASS                            : VT_R4   = 200.000000
DS_ANPROPID_WORK_FTN                        : VT_R4   = 4.200000
DS_ANPROPID_LENS_MODE_NAME                  : VT_BSTR = 'Standard'
DS_ANPROPID_TXFN_COEFFS                     : VT_I4   = 4
DS_ANPROPID_TXFN_REMOVED                    : VT_BOOL = True
; Property list for DS_ANPROPID_TXFN_COEFF (expecting 4) follows:
DS_ANPROPID_TXFN_COEFF[0]                        : VT_R4   = 4.730430
DS_ANPROPID_TXFN_COEFF[1]                        : VT_R4   = 0.641629
DS_ANPROPID_TXFN_COEFF[2]                        : VT_R4   = -0.583938
DS_ANPROPID_TXFN_COEFF[3]                        : VT_R4   = 0.061485

;Extended Properties present:
$PROPERTIES=EXT
;   NONE found

;========================================================================

;DataSpace has 1 data axes as follows:
;   #=      start,     end,       numSpaceAxes
$DATAAXES=1,#empty#
    0=        0,     1360,          1

;========================================================================

;DataSpace has 1 space axes as follows:
;   #=       start,         width,       numPoints,  axisType,   linear,  symbol,     unit,      label
$SPACEAXES=1
    0=     136.680000,       1.000000,     1361,  ENERGY,   LINEAR,  'E',   'eV',    'Energy'

;========================================================================

;Values on axis 0
$DATA=*
LIST@   0=    25234.675077,    24868.183931,    24983.775575,    25280.742646
LIST@   4=    25180.629204,    24689.760372,    24819.955641,    25222.730565
LIST@   8=    24296.601586,    24260.010747,    24314.535737,    24277.410036
LIST@  12=    23971.887058,    24035.712758,    24396.084911,    24213.115099
LIST@  16=    24184.241270,    23578.280711,    24078.150590,    23842.618587
LIST@  20=    23932.987564,    23830.491862,    23593.094176,    23392.494449
LIST@  24=    23347.716457,    23053.588288,    22981.113599,    23542.272548
LIST@  28=    23262.972819,    23195.929415,    22870.833708,    23183.094994
LIST@  32=    22981.835690,    22908.964520,    23151.774626,    23080.123302
LIST@  36=    23201.142353,    22955.274511,    22736.277485,    22951.922631
LIST@  40=    22574.664729,    22920.460306,    22873.508251,    22264.889362
LIST@  44=    22365.901157,    22962.634627,    22769.795366,    22648.768213
LIST@  48=    22405.392701,    22568.945151,    22407.253766,    22705.508889
LIST@  52=    22196.088692,    22802.436769,    22531.080726,    22243.205264
LIST@  56=    22544.642141,    22471.749143,    22535.206557,    22183.423903
LIST@  60=    22625.802321,    22358.939371,    22255.818153,    22752.935174
LIST@  64=    22363.656321,    21980.718060,    22159.505859,    22274.378354
LIST@  68=    22277.254291,    22070.428932,    22549.095206,    22269.044077
LIST@  72=    22459.401264,    22442.226383,    22445.317481,    22236.623935
LIST@  76=    22603.122194,    22341.504492,    22699.846409,    22448.625156
LIST@  80=    22422.864050,    22511.321890,    22395.431719,    22509.466191
LIST@  84=    22379.939597,    22497.330691,    22529.012240,    22369.677200
LIST@  88=    22377.476317,    22436.728974,    22351.055563,    22415.714382
LIST@  92=    22385.637098,    22533.998237,    22538.357691,    22601.688150
LIST@  96=    22394.163626,    22294.330831,    22331.967086,    22711.649481
LIST@ 100=    22932.384337,    22793.680205,    22759.329637,    22875.554117
LIST@ 104=    22907.160716,    22851.166110,    22795.330471,    22702.051503
LIST@ 108=    23070.905355,    22954.050936,    23020.667645,    22990.340238
LIST@ 112=    22909.791950,    23032.572795,    23025.751157,    23181.180674
LIST@ 116=    23304.787387,    23398.493392,    23027.830422,    23551.499818
LIST@ 120=    23588.019339,    23610.387077,    23727.879570,    23275.670163
LIST@ 124=    23718.653733,    23819.615069,    23544.463472,    23510.293992
LIST@ 128=    23449.208365,    23306.996902,    22877.447096,    22725.230320
LIST@ 132=    22506.566604,    22468.591912,    22199.586145,    22259.091999
LIST@ 136=    22114.233381,    21635.531628,    21582.686918,    21929.677242
LIST@ 140=    21479.679741,    21831.325749,    21751.986058,    21698.447269
LIST@ 144=    21771.892871,    21875.918669,    21676.973225,    22064.227672
LIST@ 148=    21727.124018,    22057.897991,    21993.399440,    21604.648637
LIST@ 152=    22043.231001,    21972.410237,    22024.110051,    21747.581332
LIST@ 156=    21963.223593,    22011.566310,    22037.560527,    22013.098079
LIST@ 160=    22133.657938,    21815.592937,    21814.698158,    21994.713545
LIST@ 164=    21808.638387,    22001.165814,    21874.074521,    22243.734429
LIST@ 168=    22102.264272,    22128.598571,    22053.333466,    22300.223535
LIST@ 172=    22189.522239,    22423.184831,    22116.095678,    22238.094917
LIST@ 176=    22354.782167,    22572.876243,    22161.978145,    22358.758190
LIST@ 180=    22624.831000,    22498.271293,    22630.364627,    22525.156027
LIST@ 184=    22479.070009,    22551.603149,    22410.713135,    22394.951237
LIST@ 188=    22606.189702,    22161.896104,    22609.994714,    22539.757163
LIST@ 192=    22533.658229,    22549.412391,    22641.142123,    22629.397724
LIST@ 196=    22870.898560,    22909.928030,    22939.850056,    22997.388227
LIST@ 200=    22849.508287,    22953.321292,    22963.995700,    23122.500914
LIST@ 204=    22878.475266,    22620.999219,    22896.573818,    23040.675560
LIST@ 208=    23074.116152,    23116.398217,    23252.707599,    22905.920187
LIST@ 212=    23077.682823,    23003.885084,    23322.014040,    23148.258963
LIST@ 216=    23455.192135,    23347.804093,    23311.588380,    23186.511630
LIST@ 220=    23558.220120,    23425.675100,    23465.567099,    23664.746153
LIST@ 224=    23373.423048,    23528.895281,    23393.079461,    23505.998093
LIST@ 228=    23431.921913,    23716.137706,    23906.177650,    23842.806622
LIST@ 232=    23941.820524,    23649.462293,    23986.856197,    23890.854543
LIST@ 236=    24172.403716,    24008.140562,    24244.678042,    23887.833409
LIST@ 240=    24093.978291,    24240.446620,    23943.588612,    24256.586489
LIST@ 244=    24153.163380,    23918.314033,    24333.716557,    24150.353846
LIST@ 248=    24444.778144,    24321.176134,    23827.229160,    24417.960415
LIST@ 252=    24430.216412,    24499.152377,    24402.687181,    24499.340782
LIST@ 256=    24552.393036,    24359.076493,    24682.117375,    24845.557228
LIST@ 260=    24729.177348,    24910.831358,    24644.341127,    24832.898090
LIST@ 264=    24876.045278,    24914.373201,    25017.714919,    24962.595380
LIST@ 268=    25068.409342,    25394.862361,    24866.537103,    25023.839415
LIST@ 272=    25207.401446,    24950.195071,    25086.305344,    24994.802613
LIST@ 276=    25506.449427,    25328.086043,    25274.265018,    25515.732210
LIST@ 280=    25488.310951,    25588.899765,    25235.858727,    25679.352437
LIST@ 284=    25624.909814,    25664.074396,    25883.613595,    25627.834713
LIST@ 288=    25672.200816,    25703.697018,    25715.306512,    25776.390312
LIST@ 292=    25926.552566,    25839.598516,    25794.250193,    26041.081933
LIST@ 296=    25799.232826,    26025.969221,    25896.912494,    26233.236058
LIST@ 300=    25886.983450,    26308.688221,    26240.440764,    26393.818533
LIST@ 304=    26450.071998,    26264.595923,    26328.629723,    26543.420453
LIST@ 308=    26708.895984,    26638.058764,    26517.804584,    26619.342801
LIST@ 312=    26624.771007,    26470.064110,    26622.873976,    26669.509051
LIST@ 316=    26767.828444,    26990.120084,    26401.401994,    26967.855671
LIST@ 320=    26896.456021,    27048.960530,    27108.972617,    27316.076549
LIST@ 324=    27029.092767,    27354.341740,    27411.096797,    27405.377967
LIST@ 328=    27080.225466,    26943.286053,    27505.453710,    27293.349642
LIST@ 332=    27312.347751,    27274.532495,    27419.378969,    27685.449352
LIST@ 336=    27635.939470,    27750.189874,    27408.808810,    28008.656003
LIST@ 340=    27904.632900,    27878.886380,    27695.423356,    27638.471523
LIST@ 344=    27555.873659,    27533.995699,    27721.452662,    28106.210291
LIST@ 348=    28130.359086,    27875.586249,    28038.727125,    28233.960876
LIST@ 352=    28373.408507,    28380.415354,    28871.590549,    28824.137927
LIST@ 356=    28974.585945,    28343.498852,    28235.986859,    28038.382617
LIST@ 360=    27964.476926,    27997.126120,    27868.405878,    27691.470433
LIST@ 364=    27464.117532,    27631.885091,    27640.416429,    27449.876422
LIST@ 368=    27506.342571,    27889.317610,    27987.992143,    28237.476556
LIST@ 372=    28387.861364,    29387.906222,    29809.804401,    30148.404375
LIST@ 376=    29793.313268,    28914.146889,    28583.002271,    28085.810057
LIST@ 380=    27387.026350,    27672.064398,    26925.383266,    27020.580960
LIST@ 384=    27068.210523,    27026.416776,    26493.156863,    26385.162006
LIST@ 388=    26414.197521,    26755.586471,    26350.394945,    26544.841736
LIST@ 392=    26682.519462,    26517.453281,    26307.375764,    26078.792785
LIST@ 396=    26407.298173,    26488.288367,    26225.317495,    26444.450428
LIST@ 400=    26231.141907,    26543.072583,    26491.907927,    26556.634360
LIST@ 404=    26243.118756,    26121.288860,    26030.357206,    25883.146324
LIST@ 408=    25490.301714,    25322.187388,    25645.321895,    24990.682443
LIST@ 412=    25103.663731,    25069.426060,    25154.333842,    25400.536856
LIST@ 416=    25477.993540,    25220.761579,    25262.643836,    25400.438625
LIST@ 420=    25449.249396,    25618.798318,    25699.310168,    25681.938278
LIST@ 424=    25431.869105,    25378.398852,    24949.910805,    25070.417137
LIST@ 428=    25150.988894,    24889.996526,    24721.414015,    24683.603654
LIST@ 432=    24613.883889,    24841.042961,    24781.202224,    24376.113752
LIST@ 436=    24751.659747,    24806.016673,    24967.158552,    24536.499268
LIST@ 440=    24702.243797,    24746.341085,    25046.813905,    25047.229310
LIST@ 444=    25516.114994,    25808.849261,    25525.374047,    25260.712907
LIST@ 448=    25778.938864,    25693.811203,    25616.895803,    25376.947214
LIST@ 452=    25253.807438,    24942.218633,    24861.826323,    24378.737753
LIST@ 456=    24374.665889,    24208.366441,    24170.678001,    23869.346034
LIST@ 460=    24107.986166,    23966.738643,    23661.610691,    23954.034509
LIST@ 464=    23875.684105,    23786.027444,    23712.596238,    23676.640181
LIST@ 468=    23741.836193,    24065.433078,    24043.169336,    23790.590177
LIST@ 472=    23877.065478,    23803.102689,    23914.264124,    23636.537353
LIST@ 476=    23866.191886,    23981.173474,    23907.798651,    24125.221002
LIST@ 480=    24410.353619,    24204.400320,    23995.531089,    24043.249978
LIST@ 484=    23734.814267,    24019.638387,    23842.129503,    23948.737498
LIST@ 488=    24139.599444,    24146.912987,    23816.497544,    24062.468191
LIST@ 492=    24142.941286,    24383.502433,    24452.937706,    24487.766658
LIST@ 496=    24523.438527,    24337.123714,    24716.498204,    24650.843936
LIST@ 500=    24748.747623,    24542.784825,    24670.651058,    24322.910050
LIST@ 504=    24179.399039,    24142.962174,    24293.680317,    23779.889661
LIST@ 508=    24010.172761,    24046.760843,    24027.167102,    23942.850533
LIST@ 512=    23843.638312,    23802.288431,    23834.653966,    23858.192243
LIST@ 516=    23872.933359,    23668.557063,    23294.924842,    22958.267512
LIST@ 520=    22850.236588,    22554.283886,    22527.121548,    22540.372289
LIST@ 524=    22596.772085,    22622.891292,    22258.457273,    22467.043576
LIST@ 528=    22448.841746,    22347.060945,    22285.318698,    22422.126684
LIST@ 532=    22259.019072,    21957.393549,    22149.021697,    21911.180163
LIST@ 536=    21929.656566,    21854.141373,    21768.509318,    22112.883955
LIST@ 540=    22109.538903,    21739.534529,    21791.173568,    22333.820395
LIST@ 544=    22272.599293,    22262.154681,    22625.821665,    22806.405377
LIST@ 548=    22596.232604,    22637.883228,    22269.934481,    22444.453342
LIST@ 552=    23224.420316,    23849.214460,    23702.739684,    22971.584710
LIST@ 556=    21350.446337,    20347.101146,    20551.568633,    20363.615310
LIST@ 560=    21078.758159,    21011.806725,    21530.588682,    22155.574597
LIST@ 564=    21861.304626,    21631.434912,    22075.008932,    23376.558602
LIST@ 568=    24917.554314,    26137.348522,    24617.164980,    21065.922588
LIST@ 572=    18948.968529,    17969.371792,    17916.485822,    17658.405690
LIST@ 576=    17520.795588,    17676.687486,    17257.630290,    17050.456634
LIST@ 580=    17005.675429,    16100.616090,    15623.703564,    15264.161384
LIST@ 584=    14944.620584,    14927.374248,    14699.557319,    14519.402122
LIST@ 588=    14275.791281,    14468.234856,    14332.982167,    14274.246274
LIST@ 592=    14091.842389,    14259.828194,    14368.033279,    14362.507193
LIST@ 596=    14212.635366,    14013.971013,    14042.598557,    14168.337386
LIST@ 600=    14108.355466,    14238.556707,    14556.023534,    14260.631071
LIST@ 604=    14103.537439,    14464.218322,    14015.320629,    14342.936941
LIST@ 608=    14220.638111,    14434.276379,    14295.463720,    14573.382383
LIST@ 612=    14416.288390,    14305.687585,    14377.844440,    14371.294638
LIST@ 616=    14105.569421,    14287.737578,    14090.177073,    14347.398339
LIST@ 620=    14348.155551,    14227.163997,    14457.291879,    14204.222374
LIST@ 624=    14537.365442,    14559.930057,    14559.973137,    14601.995204
LIST@ 628=    14878.632330,    14831.968274,    14870.182758,    15165.282873
LIST@ 632=    15296.841689,    15291.983024,    15358.955214,    15305.647100
LIST@ 636=    15333.047726,    15441.812629,    15304.235062,    14906.465207
LIST@ 640=    14280.195662,    13707.324974,    13100.524850,    12823.692838
LIST@ 644=    12850.128038,    12659.768793,    12669.936476,    12804.855558
LIST@ 648=    12734.575657,    12828.160597,    12710.723424,    12718.489380
LIST@ 652=    12619.991761,    12578.469786,    12641.044603,    12352.476285
LIST@ 656=    12530.369822,    12362.084429,    12241.905983,    12268.555052
LIST@ 660=    12142.593243,    12294.773749,    12206.004668,    12272.303910
LIST@ 664=    12493.930355,    12585.102503,    12434.507660,    12308.089037
LIST@ 668=    12295.973788,    12538.582104,    12357.427920,    12655.382461
LIST@ 672=    12662.416095,    12623.101541,    12589.556568,    12457.396252
LIST@ 676=    12489.270642,    12733.141671,    12545.274604,    12575.321510
LIST@ 680=    12569.594804,    12562.711853,    12514.514445,    12479.779450
LIST@ 684=    12421.465767,    12617.681337,    12442.315194,    12419.927186
LIST@ 688=    12302.731958,    12084.833822,    12004.598138,    11950.031887
LIST@ 692=    12157.632986,    12776.020425,    13480.121792,    14586.933468
LIST@ 696=    15464.037610,    15193.838641,    13424.767708,    11667.090081
LIST@ 700=    10743.744597,    10213.504675,    10540.674781,    10727.010990
LIST@ 704=    11387.613656,    12437.014054,    14407.334193,    16378.544225
LIST@ 708=    17305.428146,    15221.969868,    11152.013200,     8039.037467
LIST@ 712=     7101.350559,     6930.955454,     6760.121822,     6768.058018
LIST@ 716=     6920.991977,     6765.222476,     6691.941143,     6703.650487
LIST@ 720=     6739.671075,     6603.672018,     6698.803819,     6836.244968
LIST@ 724=     6544.350219,     6753.535925,     6882.995108,     6844.149983
LIST@ 728=     6829.316476,     6861.400132,     6910.356171,     6794.111661
LIST@ 732=     6831.416379,     6835.798219,     6793.772970,     6814.059689
LIST@ 736=     6806.771255,     6882.158195,     6927.517611,     6930.275733
LIST@ 740=     6901.470529,     7066.201101,     6874.618098,     6873.270828
LIST@ 744=     7089.075582,     7059.992414,     6977.932842,     6962.739498
LIST@ 748=     7002.252955,     7042.711992,     6931.945049,     7026.005805
LIST@ 752=     7016.988696,     7068.171842,     7058.452875,     7197.464934
LIST@ 756=     7102.155582,     6978.650074,     7077.285203,     6962.434660
LIST@ 760=     7040.159225,     7006.319663,     7097.048094,     7130.645485
LIST@ 764=     7078.740087,     7271.193184,     7103.139215,     7115.355266
LIST@ 768=     7314.404299,     7177.823450,     7204.136488,     7199.783887
LIST@ 772=     7244.684327,     7109.383089,     7235.251000,     7176.184412
LIST@ 776=     7264.812777,     7187.231948,     7049.083226,     7158.734964
LIST@ 780=     7189.567186,     7267.939016,     7250.018843,     7013.873029
LIST@ 784=     6963.465023,     7237.081975,     7216.542209,     7206.098395
LIST@ 788=     7181.942644,     7153.385260,     7159.466521,     7363.221909
LIST@ 792=     7376.629964,     7437.173534,     7712.850971,     7578.948440
LIST@ 796=     7598.398638,     7570.149455,     7522.915858,     7204.359306
LIST@ 800=     7187.600697,     7239.994561,     7001.189224,     6799.365275
LIST@ 804=     6884.296338,     6777.018782,     6500.455215,     6240.405114
LIST@ 808=     6063.553548,     5785.196552,     5436.780461,     5411.997545
LIST@ 812=     5278.704826,     5088.838429,     5404.183734,     5374.213383
LIST@ 816=     6202.789677,     8349.735640,    14439.214489,    21440.654417
LIST@ 820=    22333.394232,    11552.136702,     4957.490773,     3878.878647
LIST@ 824=     3598.967420,     3460.070176,     3346.569623,     3337.557375
LIST@ 828=     3359.673549,     3310.658310,     3339.023406,     3318.934802
LIST@ 832=     3249.959873,     3212.145144,     3188.739814,     3300.181595
LIST@ 836=     3380.502131,     3339.075675,     3427.897545,     3281.044557
LIST@ 840=     3269.649992,     3204.956059,     3249.285091,     3355.863647
LIST@ 844=     3351.997007,     3337.595679,     3342.826770,     3423.917331
LIST@ 848=     3320.052957,     3337.549616,     3360.572116,     3244.206489
LIST@ 852=     3289.274949,     3475.841373,     3434.607584,     3331.305037
LIST@ 856=     3319.454750,     3433.181650,     3515.526189,     3427.679954
LIST@ 860=     3425.430541,     3462.141758,     3373.069458,     3417.250818
LIST@ 864=     3373.801107,     3504.519803,     3428.552867,     3499.249949
LIST@ 868=     3479.536583,     3421.212424,     3406.076475,     3474.116597
LIST@ 872=     3445.392324,     3576.562489,     3518.262373,     3380.235325
LIST@ 876=     3505.946016,     3471.224533,     3402.356430,     3462.250910
LIST@ 880=     3445.567359,     3482.999975,     3546.280894,     3454.314109
LIST@ 884=     3463.030721,     3415.011669,     3472.356768,     3491.386137
LIST@ 888=     3542.391180,     3629.135804,     3616.242661,     3483.108384
LIST@ 892=     3553.509526,     3547.220801,     3581.821910,     3499.903361
LIST@ 896=     3477.900091,     3532.740057,     3524.517838,     3527.046792
LIST@ 900=     3569.439483,     3573.109999,     3615.440713,     3671.645637
LIST@ 904=     3645.787641,     3505.798769,     3571.378698,     3635.804306
LIST@ 908=     3605.431779,     3619.172857,     3645.219996,     3680.864200
LIST@ 912=     3687.116636,     3614.529690,     3686.081578,     3646.862892
LIST@ 916=     3717.419339,     3710.564210,     3578.792594,     3665.085647
LIST@ 920=     3703.800582,     3612.175675,     3623.168440,     3624.796144
LIST@ 924=     3752.923248,     3828.417853,     3602.141274,     3686.247323
LIST@ 928=     3740.619528,     3770.805608,     3695.411216,     3753.792055
LIST@ 932=     3633.754331,     3584.524926,     3779.649405,     3763.402419
LIST@ 936=     3696.028342,     3642.163627,     3754.584723,     3901.259243
LIST@ 940=     3734.313186,     3674.938792,     3734.875107,     3672.919297
LIST@ 944=     3817.485587,     3739.441504,     3694.601853,     3845.259949
LIST@ 948=     3921.191133,     4073.186990,     4457.620184,     4368.999508
LIST@ 952=     4062.552195,     3807.587413,     3725.987616,     3864.484330
LIST@ 956=     3855.010475,     3736.372402,     3813.304060,     3758.343127
LIST@ 960=     3770.665331,     3758.542666,     3831.173876,     3861.205600
LIST@ 964=     3823.458196,     3753.486655,     3850.029272,     3755.473035
LIST@ 968=     3894.410001,     3837.806794,     3779.606211,     3839.344908
LIST@ 972=     3809.689726,     3894.428991,     3991.937205,     3952.212802
LIST@ 976=     3931.591716,     3973.637849,     3866.408727,     4031.361939
LIST@ 980=     3938.340637,     3877.227149,     4060.112658,     4051.986328
LIST@ 984=     4021.322907,     4121.519599,     3940.819994,     3998.811123
LIST@ 988=     3881.099040,     3997.576517,     3958.160882,     3944.393756
LIST@ 992=     4111.623701,     4049.198819,     4045.212829,     4083.859274
LIST@ 996=     4083.460776,     4136.648597,     4216.155780,     4162.785646
LIST@1000=     4234.976410,     4186.206721,     4206.561924,     4217.185293
LIST@1004=     4118.858927,     4266.293217,     4183.343286,     4213.780616
LIST@1008=     4307.884374,     4271.972071,     4271.101309,     4272.586794
LIST@1012=     4373.899958,     4389.215907,     4291.952216,     4271.997069
LIST@1016=     4291.590984,     4296.510172,     4320.079752,     4410.819308
LIST@1020=     4493.951968,     4357.528455,     4486.924010,     4349.659909
LIST@1024=     4307.771838,     4387.961770,     4437.172281,     4499.210451
LIST@1028=     4475.604021,     4586.702409,     4583.068389,     4539.490102
LIST@1032=     4609.183104,     4581.639456,     4701.139269,     4657.034414
LIST@1036=     4710.044192,     4632.432743,     4766.248979,     4579.224448
LIST@1040=     4728.585006,     4738.518037,     4690.345931,     4929.348623
LIST@1044=     4859.187845,     4966.567402,     4911.568471,     4864.420254
LIST@1048=     4783.710963,     4545.701422,     4354.421423,     4296.169369
LIST@1052=     4326.610464,     3978.996427,     3791.295633,     3771.965773
LIST@1056=     3527.796148,     3443.932925,     3403.756427,     3536.289582
LIST@1060=     3810.674093,     4455.116052,     5186.369069,     7360.824977
LIST@1064=    15030.086315,    20133.812659,    11115.781360,     4607.095004
LIST@1068=     3355.090991,     3140.957873,     3118.844307,     3035.962925
LIST@1072=     2938.276161,     2899.946025,     2906.144075,     3052.227550
LIST@1076=     2974.197233,     2858.917463,     2911.239630,     2994.198707
LIST@1080=     2922.570812,     2953.204708,     2986.272904,     2932.031296
LIST@1084=     2952.484187,     2875.236370,     2966.084016,     2928.814050
LIST@1088=     2948.594893,     2936.966681,     3013.321781,     3028.866622
LIST@1092=     2927.827123,     2897.408981,     2960.430859,     2986.250820
LIST@1096=     3009.419096,     2943.800688,     2995.106469,     2898.811507
LIST@1100=     3040.093227,     2947.194602,     2903.215270,     3026.771068
LIST@1104=     2922.749623,     3059.163812,     2974.384020,     3118.777392
LIST@1108=     2968.464074,     3003.931930,     3081.258343,     3157.572953
LIST@1112=     3037.186302,     3088.546183,     3028.059509,     3072.375704
LIST@1116=     2994.300134,     2962.526398,     3023.811980,     3120.686171
LIST@1120=     3107.229015,     3028.012129,     3103.215519,     3166.223182
LIST@1124=     3045.932876,     3133.603929,     3143.484056,     3071.433395
LIST@1128=     3147.592721,     3228.763475,     3099.080537,     3142.071443
LIST@1132=     3197.295534,     3121.650421,     3229.425671,     3169.620932
LIST@1136=     3151.626177,     3170.069662,     3167.211893,     3099.824154
LIST@1140=     3122.972546,     3174.763617,     3224.928157,     3271.705328
LIST@1144=     3262.393237,     3076.237581,     3150.229464,     3239.168015
LIST@1148=     3167.813344,     3171.628102,     3140.538031,     3215.728403
LIST@1152=     3282.421302,     3182.227295,     3243.891413,     3170.436785
LIST@1156=     3248.400386,     3277.222300,     3176.342769,     3167.595544
LIST@1160=     3244.148266,     3283.525530,     3293.128402,     3226.795512
LIST@1164=     3224.581604,     3313.749158,     3274.749523,     3239.374992
LIST@1168=     3273.339438,     3251.943585,     3355.616234,     3242.757967
LIST@1172=     3289.542965,     3399.182026,     3392.789849,     3358.175758
LIST@1176=     3370.801307,     3355.946697,     3291.057820,     3361.830527
LIST@1180=     3389.899407,     3444.826069,     3407.672597,     3416.808647
LIST@1184=     3397.721572,     3454.338990,     3407.922809,     3434.416480
LIST@1188=     3432.638544,     3417.105847,     3357.781839,     3449.189162
LIST@1192=     3394.215416,     3410.232867,     3546.101228,     3375.878731
LIST@1196=     3497.408161,     3406.604583,     3450.791617,     3494.705713
LIST@1200=     3503.261488,     3490.183484,     3494.138769,     3605.544915
LIST@1204=     3473.842719,     3479.601649,     3575.899625,     3535.423924
LIST@1208=     3584.722149,     3447.700316,     3580.733193,     3473.423285
LIST@1212=     3521.630410,     3597.544083,     3618.827471,     3669.951780
LIST@1216=     3584.327623,     3629.641385,     3503.938884,     3650.003339
LIST@1220=     3703.068346,     3591.974468,     3591.540122,     3598.985395
LIST@1224=     3640.297603,     3513.154661,     3611.005131,     3568.674577
LIST@1228=     3577.305182,     3672.327360,     3677.168762,     3647.132314
LIST@1232=     3591.687047,     3651.166957,     3485.748606,     3519.039700
LIST@1236=     3749.828075,     3684.547958,     3782.914279,     3745.639201
LIST@1240=     3908.666324,     3889.317455,     4038.736913,     3982.033202
LIST@1244=     4000.717411,     4074.192647,     4184.899582,     4339.801382
LIST@1248=     4080.817926,     3842.215527,     3628.800969,     3489.135633
LIST@1252=     3454.971549,     3400.673863,     3414.578979,     3361.064496
LIST@1256=     3349.508533,     3375.324515,     3468.554943,     3496.993779
LIST@1260=     3660.314886,     3760.176254,     3680.278045,     3556.030032
LIST@1264=     3681.082853,     3857.171754,     3949.683319,     3944.027337
LIST@1268=     3568.572867,     3359.165857,     3240.268827,     3120.990107
LIST@1272=     3075.591820,     3105.722931,     3003.271683,     3040.469052
LIST@1276=     3036.771330,     2960.401592,     3017.687948,     3031.058811
LIST@1280=     3088.063336,     3037.899329,     3126.774350,     3239.171570
LIST@1284=     3412.415154,     3529.572622,     3752.390800,     4080.853600
LIST@1288=     4325.105609,     4177.925815,     3605.988925,     2800.718064
LIST@1292=     2208.586903,     1936.780923,     1838.705801,     1777.761453
LIST@1296=     1779.137973,     1900.978941,     2342.740439,     2816.277591
LIST@1300=     3382.776991,     3518.573286,     2648.230865,     1594.173528
LIST@1304=     1054.928133,      883.640586,      853.926688,      841.761189
LIST@1308=      815.318793,      808.818045,      797.355475,      736.861380
LIST@1312=      804.121461,      770.207235,      700.694868,      727.497463
LIST@1316=      709.950448,      723.260742,      682.450454,      772.216279
LIST@1320=      793.743420,      777.901795,      781.705836,      888.402529
LIST@1324=      871.520421,     1027.587122,     1182.921802,     1323.435959
LIST@1328=     1381.227396,     1145.214007,      859.067200,      713.470884
LIST@1332=      647.027047,      589.126034,      564.316986,      575.945491
LIST@1336=      582.256011,      539.631398,      548.076932,      540.539094
LIST@1340=      594.694415,      736.487290,      887.203405,      917.862979
LIST@1344=     1069.361848,     1047.517235,     1107.818870,     1039.031574
LIST@1348=      751.924677,      329.168824,       85.308314,       27.517237
LIST@1352=       19.311611,       15.066851,       12.581756,       14.603797
LIST@1356=        6.756731,        8.365800,        6.590232,        1.640553
LIST@1360=        1.055001
